  -1.3000000e+01
  -3.1400000e+02
  -3.2400000e+02
  -3.5600000e+02
  -3.6300000e+02
  -3.4900000e+02
  -2.4900000e+02
  -2.2600000e+02
  -2.4200000e+02
  -1.9200000e+02
  -1.7000000e+02
  -1.9000000e+02
  -1.9900000e+02
  -1.5300000e+02
  -1.3300000e+02
  -2.0000000e+02
  -2.6700000e+02
  -2.5700000e+02
  -2.4900000e+02
  -3.0400000e+02
  -3.4700000e+02
  -3.4800000e+02
  -3.2600000e+02
  -3.8300000e+02
  -3.7300000e+02
  -3.2200000e+02
  -2.5300000e+02
  -2.1800000e+02
  -1.9600000e+02
  -1.4100000e+02
  -1.0100000e+02
  -1.1700000e+02
  -1.2100000e+02
  -5.9000000e+01
  -5.9000000e+01
  -9.7000000e+01
  -1.4400000e+02
  -1.6700000e+02
  -1.5700000e+02
  -1.8200000e+02
  -1.8800000e+02
  -1.8500000e+02
  -1.8800000e+02
  -2.2700000e+02
  -2.2600000e+02
  -1.4700000e+02
  -1.2600000e+02
  -1.2600000e+02
  -1.4100000e+02
  -8.7000000e+01
  -4.4000000e+01
  -6.6000000e+01
  -5.7000000e+01
  -2.7000000e+01
  -2.1000000e+01
  -6.5000000e+01
  -9.6000000e+01
  -6.4000000e+01
  -3.2000000e+01
  -6.6000000e+01
  -8.1000000e+01
  -5.1000000e+01
  -8.6000000e+01
  -1.6200000e+02
  -1.9200000e+02
  -1.9200000e+02
  -1.8400000e+02
  -1.7700000e+02
  -1.8600000e+02
  -1.4500000e+02
  -1.1500000e+02
  -9.4000000e+01
  -2.0000000e+01
   4.0000000e+01
   4.2000000e+01
   5.0000000e+00
  -4.0000000e+01
  -7.8000000e+01
  -8.8000000e+01
  -1.6900000e+02
  -1.9400000e+02
  -1.7900000e+02
  -1.5700000e+02
  -1.8700000e+02
  -2.0100000e+02
  -1.5500000e+02
  -9.9000000e+01
  -8.8000000e+01
  -1.1600000e+02
  -6.6000000e+01
  -2.4000000e+01
  -3.2000000e+01
  -2.3000000e+01
   1.8000000e+01
   1.7000000e+01
  -5.9000000e+01
  -1.2700000e+02
  -1.2400000e+02
  -1.0200000e+02
  -1.4300000e+02
  -1.7700000e+02
  -1.5100000e+02
  -1.1500000e+02
  -1.2300000e+02
  -1.1200000e+02
  -5.7000000e+01
   1.3000000e+01
   3.8000000e+01
   1.2000000e+01
   8.4000000e+01
   1.1600000e+02
   1.2100000e+02
   1.1700000e+02
   1.4100000e+02
   1.4500000e+02
   1.4200000e+02
   9.5000000e+01
   1.0200000e+02
   1.2100000e+02
   4.6000000e+01
   2.5000000e+01
   7.4000000e+01
   8.9000000e+01
   6.8000000e+01
   9.0000000e+01
   1.4200000e+02
   2.1100000e+02
   2.5600000e+02
   2.8100000e+02
   3.2300000e+02
   3.5500000e+02
   3.5600000e+02
   3.8300000e+02
   4.5700000e+02
   4.8800000e+02
   4.6400000e+02
   4.3100000e+02
   4.4300000e+02
   4.7000000e+02
   4.1900000e+02
   3.8900000e+02
   4.1600000e+02
   4.3200000e+02
   3.8900000e+02
   3.8400000e+02
   4.3200000e+02
   4.8900000e+02
   4.7100000e+02
   4.6800000e+02
   5.1300000e+02
   5.5200000e+02
   5.3800000e+02
   5.1300000e+02
   5.5200000e+02
   5.8000000e+02
   5.6100000e+02
   5.1800000e+02
   5.1600000e+02
   5.0500000e+02
   4.5600000e+02
   4.0000000e+02
   3.8900000e+02
   3.9400000e+02
   3.7800000e+02
   3.8000000e+02
   4.4200000e+02
   4.9100000e+02
   4.8500000e+02
   4.7000000e+02
   5.1500000e+02
   5.5900000e+02
   5.6500000e+02
   5.4500000e+02
   5.6500000e+02
   5.4100000e+02
   4.7000000e+02
   3.8800000e+02
   3.6400000e+02
   3.8300000e+02
   3.2500000e+02
   2.6000000e+02
   2.5700000e+02
   2.6600000e+02
   1.9300000e+02
   1.6700000e+02
   1.8000000e+02
   2.0700000e+02
   1.9300000e+02
   1.4800000e+02
   1.7800000e+02
   2.1400000e+02
   1.8800000e+02
   1.5900000e+02
   1.7200000e+02
   1.4900000e+02
   8.6000000e+01
   2.6000000e+01
   1.7000000e+01
  -1.1000000e+01
  -1.1000000e+02
  -1.7400000e+02
  -2.0200000e+02
  -2.1300000e+02
  -2.5400000e+02
  -2.9200000e+02
  -2.9200000e+02
  -2.7500000e+02
  -2.9300000e+02
  -3.1900000e+02
  -2.7300000e+02
  -2.5600000e+02
  -2.9100000e+02
  -3.4000000e+02
  -3.3200000e+02
  -3.3900000e+02
  -3.9200000e+02
  -4.4700000e+02
  -4.3600000e+02
  -4.2900000e+02
  -4.7600000e+02
  -5.3100000e+02
  -5.4100000e+02
  -5.5200000e+02
  -6.0700000e+02
  -6.2300000e+02
  -5.9600000e+02
  -5.4900000e+02
  -5.5900000e+02
  -5.9100000e+02
  -5.5800000e+02
  -5.1100000e+02
  -5.1300000e+02
  -5.2200000e+02
  -4.7800000e+02
  -4.6500000e+02
  -5.1300000e+02
  -5.8000000e+02
  -5.8000000e+02
  -5.7400000e+02
  -6.4100000e+02
  -6.8300000e+02
  -6.6000000e+02
  -6.4000000e+02
  -6.7200000e+02
  -6.5800000e+02
  -6.1400000e+02
  -5.4700000e+02
  -5.1400000e+02
  -5.1700000e+02
  -4.5700000e+02
  -4.1700000e+02
  -4.4600000e+02
  -4.7200000e+02
  -4.3600000e+02
  -4.3100000e+02
  -4.5400000e+02
  -5.1200000e+02
  -5.3600000e+02
  -5.3100000e+02
  -5.7500000e+02
  -6.1900000e+02
  -6.1000000e+02
  -6.0400000e+02
  -6.5100000e+02
  -6.6100000e+02
  -6.3100000e+02
  -5.9100000e+02
  -5.6800000e+02
  -5.6500000e+02
  -5.2800000e+02
  -5.0200000e+02
  -4.8300000e+02
  -4.8600000e+02
  -4.2900000e+02
  -4.0900000e+02
  -4.4200000e+02
  -4.8800000e+02
  -4.8000000e+02
  -4.5400000e+02
  -4.8800000e+02
  -5.1500000e+02
  -5.1200000e+02
  -4.8400000e+02
  -5.1300000e+02
  -5.3700000e+02
  -4.7800000e+02
  -4.1900000e+02
  -4.0500000e+02
  -4.1000000e+02
  -3.5900000e+02
  -3.1100000e+02
  -3.2300000e+02
  -3.3500000e+02
  -2.8300000e+02
  -2.6900000e+02
  -2.8900000e+02
  -3.4300000e+02
  -3.4600000e+02
  -3.4500000e+02
  -3.8900000e+02
  -4.4400000e+02
  -4.3600000e+02
  -4.2400000e+02
  -4.7000000e+02
  -4.7000000e+02
  -4.1200000e+02
  -3.4000000e+02
  -3.0100000e+02
  -3.1800000e+02
  -2.7900000e+02
  -2.4300000e+02
  -2.5000000e+02
  -2.6100000e+02
  -2.0500000e+02
  -2.0000000e+02
  -2.1900000e+02
  -2.6200000e+02
  -2.8200000e+02
  -2.4600000e+02
  -2.7100000e+02
  -2.8200000e+02
  -2.8100000e+02
  -2.7000000e+02
  -3.0100000e+02
  -3.0500000e+02
  -2.7500000e+02
  -2.3600000e+02
  -2.3700000e+02
  -2.5300000e+02
  -1.9500000e+02
  -1.3500000e+02
  -1.1700000e+02
  -1.2600000e+02
  -1.0600000e+02
  -8.9000000e+01
  -1.2500000e+02
  -1.8600000e+02
  -2.0600000e+02
  -1.7800000e+02
  -2.1700000e+02
  -2.5700000e+02
  -2.6000000e+02
  -2.6300000e+02
  -3.0000000e+02
  -3.2200000e+02
  -2.8900000e+02
  -2.4600000e+02
  -2.2700000e+02
  -2.3600000e+02
  -1.7500000e+02
  -1.0300000e+02
  -1.2100000e+02
  -1.2600000e+02
  -7.7000000e+01
  -6.9000000e+01
  -1.0400000e+02
  -1.5000000e+02
  -1.5900000e+02
  -1.6200000e+02
  -2.1300000e+02
  -2.7300000e+02
  -2.7200000e+02
  -2.6600000e+02
  -3.1500000e+02
  -3.0300000e+02
  -2.5700000e+02
  -1.9600000e+02
  -1.7000000e+02
  -1.9900000e+02
  -1.6300000e+02
  -1.5000000e+02
  -1.5300000e+02
  -1.4600000e+02
  -9.1000000e+01
  -9.1000000e+01
  -1.3000000e+02
  -1.7100000e+02
  -1.8000000e+02
  -1.5700000e+02
  -2.0200000e+02
  -2.4900000e+02
  -2.4100000e+02
  -2.2600000e+02
  -2.8600000e+02
  -3.3100000e+02
  -3.1400000e+02
  -2.6700000e+02
  -2.4600000e+02
  -2.6600000e+02
  -2.2100000e+02
  -1.7200000e+02
  -1.8500000e+02
  -1.7800000e+02
  -1.3400000e+02
  -1.0400000e+02
  -1.4300000e+02
  -2.0800000e+02
  -2.4500000e+02
  -2.5800000e+02
  -3.1900000e+02
  -3.6100000e+02
  -3.5600000e+02
  -3.3100000e+02
  -4.0700000e+02
  -4.1000000e+02
  -3.6400000e+02
  -3.1600000e+02
  -3.1100000e+02
  -3.2900000e+02
  -3.0000000e+02
  -2.9800000e+02
  -3.3300000e+02
  -3.6000000e+02
  -3.0400000e+02
  -2.8600000e+02
  -2.9400000e+02
  -3.2000000e+02
  -3.4800000e+02
  -3.5000000e+02
  -4.0300000e+02
  -4.4400000e+02
  -4.0500000e+02
  -3.6200000e+02
  -3.7900000e+02
  -3.9000000e+02
  -3.9000000e+02
  -3.6700000e+02
  -3.6700000e+02
  -4.1400000e+02
  -3.8200000e+02
  -3.5800000e+02
  -3.6000000e+02
  -3.5600000e+02
  -2.9900000e+02
  -2.6200000e+02
  -2.4800000e+02
  -2.7200000e+02
  -2.7500000e+02
  -2.7400000e+02
  -3.3600000e+02
  -3.9800000e+02
  -3.8800000e+02
  -3.7600000e+02
  -4.4000000e+02
  -4.6300000e+02
  -4.2500000e+02
  -3.6100000e+02
  -3.3300000e+02
  -3.2500000e+02
  -2.8500000e+02
  -2.3000000e+02
  -2.2600000e+02
  -2.4700000e+02
  -2.2500000e+02
  -2.1300000e+02
  -2.3800000e+02
  -2.9200000e+02
  -3.1600000e+02
  -3.1600000e+02
  -3.6000000e+02
  -3.9200000e+02
  -3.7300000e+02
  -3.6800000e+02
  -3.7600000e+02
  -3.7600000e+02
  -3.5000000e+02
  -2.9900000e+02
  -2.6600000e+02
  -2.7800000e+02
  -2.3900000e+02
  -2.1100000e+02
  -2.3000000e+02
  -2.5300000e+02
  -2.4800000e+02
  -2.6700000e+02
  -3.1300000e+02
  -3.5400000e+02
  -3.6800000e+02
  -3.3500000e+02
  -3.6900000e+02
  -4.2100000e+02
  -4.1100000e+02
  -3.9900000e+02
  -4.5500000e+02
  -4.9100000e+02
  -4.6600000e+02
  -4.3600000e+02
  -4.1700000e+02
  -4.2300000e+02
  -3.7600000e+02
  -3.2900000e+02
  -3.4100000e+02
  -3.3600000e+02
  -3.0400000e+02
  -2.9700000e+02
  -3.4600000e+02
  -4.1500000e+02
  -4.2200000e+02
  -4.0300000e+02
  -4.5700000e+02
  -5.1900000e+02
  -5.2900000e+02
  -5.3500000e+02
  -5.8500000e+02
  -5.6500000e+02
  -5.2200000e+02
  -4.6200000e+02
  -4.4000000e+02
  -4.5100000e+02
  -3.8700000e+02
  -3.5900000e+02
  -3.8000000e+02
  -3.8300000e+02
  -3.3300000e+02
  -3.2500000e+02
  -3.7600000e+02
  -4.4200000e+02
  -4.4400000e+02
  -4.2400000e+02
  -4.7800000e+02
  -5.2900000e+02
  -5.1200000e+02
  -5.0100000e+02
  -5.2700000e+02
  -5.4600000e+02
  -5.2800000e+02
  -4.8700000e+02
  -4.7100000e+02
  -4.7200000e+02
  -3.9900000e+02
  -3.3700000e+02
  -3.0800000e+02
  -2.9700000e+02
  -2.4500000e+02
  -2.3100000e+02
  -2.6100000e+02
  -3.0900000e+02
  -3.3200000e+02
  -2.7600000e+02
  -2.8700000e+02
  -3.2700000e+02
  -2.8800000e+02
  -2.3700000e+02
  -2.5500000e+02
  -2.7400000e+02
  -2.7100000e+02
  -2.1200000e+02
  -1.7300000e+02
  -1.8500000e+02
  -1.6300000e+02
  -1.0600000e+02
  -1.1600000e+02
  -1.1200000e+02
  -6.5000000e+01
  -5.5000000e+01
  -9.6000000e+01
  -1.5600000e+02
  -1.6200000e+02
  -1.4900000e+02
  -2.0600000e+02
  -2.6400000e+02
  -2.4800000e+02
  -2.1900000e+02
  -2.5400000e+02
  -2.6600000e+02
  -2.1100000e+02
  -1.2700000e+02
  -6.2000000e+01
  -2.0000000e+01
   8.3000000e+01
   1.8800000e+02
   2.5200000e+02
   3.6500000e+02
   5.3300000e+02
   7.2400000e+02
   8.8000000e+02
   1.0200000e+03
   1.2020000e+03
   1.4290000e+03
   1.5680000e+03
   1.7510000e+03
   1.9410000e+03
   2.1510000e+03
   2.2890000e+03
   2.4210000e+03
   2.5980000e+03
   2.7900000e+03
   2.9240000e+03
   3.0400000e+03
   3.2100000e+03
   3.3610000e+03
   3.4070000e+03
   3.4060000e+03
   3.4020000e+03
   3.3470000e+03
   3.1450000e+03
   2.8690000e+03
   2.6290000e+03
   2.4230000e+03
   2.1640000e+03
   1.8360000e+03
   1.5470000e+03
   1.2790000e+03
   9.7600000e+02
   7.6800000e+02
   6.0800000e+02
   4.9400000e+02
   3.7800000e+02
   2.3100000e+02
   1.5400000e+02
   9.9000000e+01
   3.0000000e+01
  -5.5000000e+01
  -1.0600000e+02
  -1.6900000e+02
  -2.5400000e+02
  -3.3000000e+02
  -3.4100000e+02
  -2.8800000e+02
  -3.0800000e+02
  -3.3500000e+02
  -2.7200000e+02
  -2.0800000e+02
  -1.9400000e+02
  -2.1100000e+02
  -1.8500000e+02
  -1.6400000e+02
  -1.8100000e+02
  -2.3100000e+02
  -2.4300000e+02
  -2.5500000e+02
  -2.9400000e+02
  -3.3500000e+02
  -3.3800000e+02
  -3.0800000e+02
  -3.4300000e+02
  -3.8300000e+02
  -3.9100000e+02
  -4.0100000e+02
  -4.5100000e+02
  -4.9200000e+02
  -4.7200000e+02
  -4.2600000e+02
  -4.3400000e+02
  -4.5200000e+02
  -4.2200000e+02
  -3.6200000e+02
  -3.4400000e+02
  -3.6200000e+02
  -3.1700000e+02
  -2.7800000e+02
  -2.8500000e+02
  -3.1000000e+02
  -2.8100000e+02
  -2.7800000e+02
  -3.0100000e+02
  -3.5200000e+02
  -3.5300000e+02
  -3.0500000e+02
  -3.2900000e+02
  -3.5300000e+02
  -3.3700000e+02
  -2.8700000e+02
  -3.2500000e+02
  -3.4400000e+02
  -3.1600000e+02
  -2.8300000e+02
  -2.6200000e+02
  -2.7800000e+02
  -2.4200000e+02
  -2.0400000e+02
  -2.1600000e+02
  -2.3000000e+02
  -1.8700000e+02
  -1.6400000e+02
  -1.9300000e+02
  -2.5700000e+02
  -2.8300000e+02
  -2.4100000e+02
  -2.7500000e+02
  -3.2400000e+02
  -3.1800000e+02
  -2.9900000e+02
  -3.2300000e+02
  -3.3300000e+02
  -3.2400000e+02
  -2.5500000e+02
  -2.2000000e+02
  -2.0400000e+02
  -1.7600000e+02
  -1.5200000e+02
  -1.5900000e+02
  -1.6600000e+02
  -1.2000000e+02
  -8.5000000e+01
  -1.0100000e+02
  -1.7300000e+02
  -2.1800000e+02
  -2.1200000e+02
  -2.4600000e+02
  -2.8500000e+02
  -2.7800000e+02
  -2.5700000e+02
  -2.7400000e+02
  -2.7500000e+02
  -2.3500000e+02
  -1.8100000e+02
  -1.5000000e+02
  -1.4400000e+02
  -1.1100000e+02
  -7.9000000e+01
  -5.1000000e+01
  -5.0000000e+01
  -1.0000000e+00
   4.8000000e+01
   4.1000000e+01
   4.0000000e+00
  -2.3000000e+01
  -2.0000000e+00
  -3.4000000e+01
  -6.9000000e+01
  -6.1000000e+01
  -3.9000000e+01
  -6.4000000e+01
  -6.0000000e+01
  -2.3000000e+01
   3.3000000e+01
   6.3000000e+01
   5.7000000e+01
   9.4000000e+01
   1.3800000e+02
   1.4700000e+02
   1.5600000e+02
   2.1900000e+02
   2.6800000e+02
   2.5500000e+02
   2.1600000e+02
   2.0300000e+02
   2.5700000e+02
   2.3800000e+02
   2.1400000e+02
   2.4300000e+02
   2.6300000e+02
   2.2600000e+02
   2.0500000e+02
   2.3800000e+02
   3.2400000e+02
   3.5200000e+02
   3.3400000e+02
   3.9100000e+02
   4.4400000e+02
   4.3700000e+02
   4.0300000e+02
   4.3100000e+02
   4.5600000e+02
   4.3300000e+02
   3.7400000e+02
   3.7500000e+02
   3.9400000e+02
   3.6000000e+02
   3.1600000e+02
   3.3600000e+02
   3.6900000e+02
   3.4500000e+02
   3.4100000e+02
   3.9600000e+02
   4.6100000e+02
   4.9600000e+02
   4.7600000e+02
   5.0900000e+02
   5.6700000e+02
   5.8500000e+02
   5.9400000e+02
   6.5200000e+02
   6.9700000e+02
   7.1400000e+02
   6.9400000e+02
   6.6600000e+02
   6.9900000e+02
   6.8200000e+02
   6.5500000e+02
   6.7400000e+02
   7.0200000e+02
   6.7100000e+02
   6.5900000e+02
   7.2100000e+02
   7.6600000e+02
   8.1800000e+02
   8.1000000e+02
   8.2400000e+02
   8.4800000e+02
   8.2900000e+02
   7.8800000e+02
   8.0300000e+02
   8.5000000e+02
   8.4600000e+02
   8.0900000e+02
   8.2900000e+02
   8.9400000e+02
   8.9200000e+02
   8.5500000e+02
   8.5600000e+02
   8.6900000e+02
   8.1600000e+02
   7.6600000e+02
   7.7800000e+02
   8.1500000e+02
   8.4200000e+02
   8.4700000e+02
   8.8400000e+02
   9.4700000e+02
   9.5900000e+02
   9.5300000e+02
   9.8700000e+02
   1.0040000e+03
   9.5200000e+02
   8.6900000e+02
   8.2100000e+02
   8.0100000e+02
   7.5600000e+02
   6.8000000e+02
   6.5400000e+02
   6.3600000e+02
   5.6400000e+02
   5.2900000e+02
   5.5300000e+02
   6.1000000e+02
   6.4300000e+02
   6.1800000e+02
   6.2800000e+02
   6.6800000e+02
   6.5900000e+02
   6.3700000e+02
   6.5100000e+02
   6.7300000e+02
   6.4300000e+02
   5.5200000e+02
   4.9500000e+02
   4.6200000e+02
   3.7400000e+02
   3.1600000e+02
   3.0500000e+02
   3.0500000e+02
   2.5600000e+02
   2.3100000e+02
   2.6100000e+02
   3.1000000e+02
   3.4900000e+02
   3.0900000e+02
   3.2000000e+02
   3.2400000e+02
   2.9900000e+02
   2.4900000e+02
   2.4900000e+02
   2.4600000e+02
   1.9300000e+02
   1.3600000e+02
   1.1100000e+02
   1.3000000e+02
   6.8000000e+01
   1.0000000e+01
  -7.0000000e+00
  -5.0000000e+00
  -6.4000000e+01
  -8.9000000e+01
  -5.1000000e+01
  -5.0000000e+00
   2.6000000e+01
   4.0000000e+00
   3.2000000e+01
   7.0000000e+01
   7.3000000e+01
   5.8000000e+01
   1.0000000e+02
   1.5300000e+02
   1.2500000e+02
   6.8000000e+01
   8.0000000e+00
   1.9000000e+01
  -3.2000000e+01
  -9.0000000e+01
  -9.9000000e+01
  -8.5000000e+01
  -1.4500000e+02
  -1.7300000e+02
  -1.5300000e+02
  -1.1700000e+02
  -1.1100000e+02
  -1.3500000e+02
  -1.1300000e+02
  -4.1000000e+01
  -3.4000000e+01
  -7.3000000e+01
  -5.2000000e+01
  -6.5000000e+01
  -8.8000000e+01
  -1.5000000e+02
  -1.6600000e+02
  -1.4700000e+02
  -1.7200000e+02
  -2.2600000e+02
  -2.2100000e+02
  -1.9400000e+02
  -2.3800000e+02
  -2.6800000e+02
  -2.4800000e+02
  -1.9600000e+02
  -1.6700000e+02
  -1.8800000e+02
  -1.7600000e+02
  -1.0600000e+02
  -1.0100000e+02
  -1.0400000e+02
  -8.1000000e+01
  -5.9000000e+01
  -7.9000000e+01
  -1.2100000e+02
  -1.5400000e+02
  -1.3200000e+02
  -1.6700000e+02
  -2.3000000e+02
  -2.3900000e+02
  -2.1600000e+02
  -2.2700000e+02
  -2.4500000e+02
  -2.2300000e+02
  -1.8500000e+02
  -1.8100000e+02
  -2.1900000e+02
  -1.7300000e+02
  -1.1600000e+02
  -9.5000000e+01
  -1.1300000e+02
  -9.1000000e+01
  -6.9000000e+01
  -9.6000000e+01
  -1.6300000e+02
  -1.8400000e+02
  -1.5800000e+02
  -1.8800000e+02
  -2.2400000e+02
  -2.1200000e+02
  -1.7500000e+02
  -1.9200000e+02
  -1.9400000e+02
  -1.6000000e+02
  -1.0400000e+02
  -7.1000000e+01
  -8.6000000e+01
  -3.9000000e+01
   1.1000000e+01
   3.3000000e+01
   3.2000000e+01
   8.0000000e+01
   9.5000000e+01
   6.6000000e+01
   2.2000000e+01
  -1.6000000e+01
   2.0000000e+00
  -3.9000000e+01
  -1.1200000e+02
  -8.8000000e+01
  -4.4000000e+01
  -5.8000000e+01
  -8.5000000e+01
  -8.1000000e+01
  -5.1000000e+01
  -4.4000000e+01
  -6.9000000e+01
  -4.1000000e+01
   2.0000000e+01
   3.1000000e+01
   1.2000000e+01
   5.9000000e+01
   8.9000000e+01
   7.9000000e+01
   3.5000000e+01
   1.7000000e+01
   3.2000000e+01
   1.0000000e+00
  -4.4000000e+01
  -4.9000000e+01
  -3.6000000e+01
  -9.2000000e+01
  -1.2800000e+02
  -8.2000000e+01
  -2.4000000e+01
   9.0000000e+00
  -1.8000000e+01
   9.0000000e+00
   7.6000000e+01
   9.6000000e+01
   1.0400000e+02
   1.2400000e+02
   1.4500000e+02
   1.1900000e+02
   4.9000000e+01
   2.5000000e+01
   5.6000000e+01
   2.6000000e+01
   5.0000000e+00
   1.7000000e+01
   1.2000000e+01
  -2.2000000e+01
  -6.1000000e+01
  -2.1000000e+01
   0.0000000e+00
   2.6000000e+01
   2.2000000e+01
   6.3000000e+01
   9.2000000e+01
   1.1200000e+02
   7.5000000e+01
   9.7000000e+01
   1.0800000e+02
   7.7000000e+01
   3.4000000e+01
   3.1000000e+01
   4.3000000e+01
  -9.0000000e+00
  -7.6000000e+01
  -7.5000000e+01
  -4.3000000e+01
  -6.2000000e+01
  -6.0000000e+01
  -4.5000000e+01
   3.0000000e+00
   3.9000000e+01
   3.2000000e+01
   8.4000000e+01
   1.5800000e+02
   1.6500000e+02
   1.6300000e+02
   2.0600000e+02
   2.4100000e+02
   2.2200000e+02
   1.8100000e+02
   1.4500000e+02
   1.6200000e+02
   1.1700000e+02
   8.1000000e+01
   6.4000000e+01
   7.8000000e+01
   4.4000000e+01
   1.1000000e+01
   1.5000000e+01
   5.8000000e+01
   8.4000000e+01
   7.8000000e+01
   1.1000000e+02
   1.5500000e+02
   1.5300000e+02
   1.4900000e+02
   1.9300000e+02
   2.2900000e+02
   2.0600000e+02
   1.2100000e+02
   9.9000000e+01
   1.0500000e+02
   6.6000000e+01
   2.0000000e+00
   1.2000000e+01
   3.7000000e+01
   1.1000000e+01
  -1.1000000e+01
   1.5000000e+01
   6.0000000e+01
   8.5000000e+01
   8.7000000e+01
   1.5200000e+02
   2.0900000e+02
   1.9400000e+02
   1.4700000e+02
   1.6900000e+02
   1.8100000e+02
   1.5800000e+02
   1.1200000e+02
   8.2000000e+01
   1.2300000e+02
   9.5000000e+01
   4.6000000e+01
   3.0000000e+01
   3.3000000e+01
   1.9000000e+01
   7.0000000e+00
   4.6000000e+01
   9.0000000e+01
   1.2000000e+02
   9.3000000e+01
   1.3000000e+02
   1.8700000e+02
   1.7900000e+02
   1.6700000e+02
   1.9500000e+02
   2.0000000e+02
   2.1000000e+02
   1.6100000e+02
   1.4600000e+02
   1.5000000e+02
   1.0100000e+02
   6.4000000e+01
   7.2000000e+01
   1.0500000e+02
   1.1300000e+02
   9.6000000e+01
   1.2300000e+02
   1.9400000e+02
   2.2700000e+02
   2.4600000e+02
   2.6700000e+02
   3.1800000e+02
   3.0900000e+02
   2.8400000e+02
   3.1300000e+02
   3.5200000e+02
   3.1900000e+02
   3.1000000e+02
   2.9000000e+02
   2.9800000e+02
   2.6400000e+02
   1.9000000e+02
   1.5800000e+02
   1.8900000e+02
   1.4900000e+02
   1.3000000e+02
   1.3600000e+02
   1.6200000e+02
   1.7600000e+02
   1.5200000e+02
   1.8100000e+02
   2.5500000e+02
   2.5000000e+02
   2.3800000e+02
   2.5200000e+02
   2.7600000e+02
   2.6700000e+02
   2.2200000e+02
   1.9300000e+02
   1.9500000e+02
   1.2500000e+02
   6.4000000e+01
   7.8000000e+01
   8.1000000e+01
   3.5000000e+01
   5.0000000e+00
   3.5000000e+01
   9.8000000e+01
   1.3000000e+02
   1.3000000e+02
   1.4800000e+02
   1.8000000e+02
   1.6400000e+02
   1.0800000e+02
   8.4000000e+01
   7.5000000e+01
   1.7000000e+01
  -7.0000000e+01
  -8.8000000e+01
  -5.5000000e+01
  -7.5000000e+01
  -8.7000000e+01
  -4.6000000e+01
   4.4000000e+01
   5.1000000e+01
   1.1000000e+01
   6.0000000e+00
   0.0000000e+00
  -1.0000000e+00
  -2.3000000e+01
   1.0000000e+01
   6.3000000e+01
   1.0800000e+02
   1.2900000e+02
   1.6800000e+02
   2.1500000e+02
   2.1600000e+02
   1.6300000e+02
   1.5300000e+02
   1.7200000e+02
   1.3700000e+02
   6.5000000e+01
   3.7000000e+01
   5.6000000e+01
   4.1000000e+01
   2.1000000e+01
   4.0000000e+01
   1.1900000e+02
   1.6000000e+02
   1.9000000e+02
   2.6600000e+02
   3.5600000e+02
   3.6700000e+02
   3.5200000e+02
   3.7100000e+02
   4.3300000e+02
   4.5100000e+02
   4.1600000e+02
   3.9400000e+02
   4.1500000e+02
   3.6900000e+02
   3.0100000e+02
   3.1000000e+02
   3.4000000e+02
   3.0800000e+02
   2.7700000e+02
   2.8800000e+02
   3.3100000e+02
   3.6300000e+02
   3.3700000e+02
   3.5800000e+02
   4.1100000e+02
   4.1200000e+02
   4.0100000e+02
   4.5300000e+02
   5.2500000e+02
   5.7300000e+02
   6.0200000e+02
   6.7400000e+02
   8.2400000e+02
   9.3700000e+02
   1.0420000e+03
   1.2300000e+03
   1.4340000e+03
   1.5990000e+03
   1.7900000e+03
   2.0090000e+03
   2.2180000e+03
   2.4460000e+03
   2.6230000e+03
   2.8260000e+03
   3.0540000e+03
   3.2040000e+03
   3.3440000e+03
   3.5060000e+03
   3.6610000e+03
   3.7340000e+03
   3.7510000e+03
   3.7770000e+03
   3.7910000e+03
   3.7270000e+03
   3.5550000e+03
   3.3420000e+03
   3.1120000e+03
   2.8270000e+03
   2.5830000e+03
   2.3750000e+03
   2.1670000e+03
   1.9370000e+03
   1.6430000e+03
   1.4250000e+03
   1.2790000e+03
   1.1400000e+03
   9.7700000e+02
   8.8100000e+02
   7.5300000e+02
   6.0500000e+02
   4.2300000e+02
   3.0600000e+02
   2.3500000e+02
   1.0800000e+02
  -2.4000000e+01
  -5.5000000e+01
  -5.5000000e+01
  -7.0000000e+01
  -6.6000000e+01
  -5.0000000e+00
   9.7000000e+01
   1.5200000e+02
   1.5400000e+02
   2.0000000e+02
   2.3600000e+02
   2.2300000e+02
   1.8300000e+02
   1.4900000e+02
   1.4200000e+02
   8.7000000e+01
  -1.1000000e+01
  -8.0000000e+01
  -9.4000000e+01
  -1.4900000e+02
  -2.1800000e+02
  -2.0800000e+02
  -1.9200000e+02
  -2.1200000e+02
  -2.4600000e+02
  -2.2900000e+02
  -1.9600000e+02
  -1.6500000e+02
  -1.7700000e+02
  -1.3100000e+02
  -5.7000000e+01
  -8.3000000e+01
  -1.0300000e+02
  -1.3000000e+02
  -1.3200000e+02
  -1.7100000e+02
  -2.2800000e+02
  -2.6800000e+02
  -2.6000000e+02
  -3.0400000e+02
  -3.4600000e+02
  -3.5600000e+02
  -3.3900000e+02
  -3.6200000e+02
  -3.9600000e+02
  -3.5100000e+02
  -3.1700000e+02
  -2.7200000e+02
  -2.9300000e+02
  -2.4700000e+02
  -1.9400000e+02
  -1.6100000e+02
  -2.0400000e+02
  -1.6900000e+02
  -1.4600000e+02
  -1.2900000e+02
  -1.8500000e+02
  -2.0600000e+02
  -1.8900000e+02
  -2.0700000e+02
  -2.3200000e+02
  -2.2100000e+02
  -1.9800000e+02
  -2.0000000e+02
  -2.2500000e+02
  -1.8500000e+02
  -1.1700000e+02
  -7.7000000e+01
  -9.8000000e+01
  -4.5000000e+01
   1.2000000e+01
   2.2000000e+01
   9.0000000e+00
   2.7000000e+01
   6.7000000e+01
   5.4000000e+01
   1.0000000e+01
  -1.5000000e+01
   1.2000000e+01
  -4.2000000e+01
  -8.1000000e+01
  -6.4000000e+01
  -1.6000000e+01
  -4.4000000e+01
  -8.6000000e+01
  -9.4000000e+01
  -3.2000000e+01
   7.0000000e+00
   2.0000000e+01
   5.0000000e+01
   1.0800000e+02
   1.3300000e+02
   1.2600000e+02
   1.2700000e+02
   1.3200000e+02
   7.4000000e+01
   2.9000000e+01
   4.0000000e+00
   4.1000000e+01
  -8.0000000e+00
  -9.8000000e+01
  -1.2800000e+02
  -1.0600000e+02
  -1.5100000e+02
  -2.2800000e+02
  -2.3300000e+02
  -1.8400000e+02
  -1.3500000e+02
  -1.6000000e+02
  -1.4800000e+02
  -9.3000000e+01
  -8.0000000e+01
  -8.5000000e+01
  -7.9000000e+01
  -4.6000000e+01
  -6.3000000e+01
  -1.2200000e+02
  -1.5000000e+02
  -1.4000000e+02
  -1.6400000e+02
  -2.2100000e+02
  -2.2200000e+02
  -2.2100000e+02
  -2.4800000e+02
  -2.6900000e+02
  -2.4800000e+02
  -1.8700000e+02
  -1.1800000e+02
  -9.6000000e+01
  -5.4000000e+01
   5.0000000e+00
   2.0000000e+00
  -2.3000000e+01
  -8.0000000e+00
   2.8000000e+01
   3.3000000e+01
  -6.0000000e+00
  -3.3000000e+01
   3.0000000e+00
  -1.3000000e+01
  -5.5000000e+01
  -6.9000000e+01
  -5.7000000e+01
  -7.4000000e+01
  -1.1400000e+02
  -9.6000000e+01
  -3.8000000e+01
  -1.3000000e+01
  -4.4000000e+01
  -1.3000000e+01
   3.8000000e+01
   4.0000000e+01
   2.7000000e+01
   4.3000000e+01
   7.1000000e+01
   8.4000000e+01
   6.3000000e+01
   6.9000000e+01
   9.9000000e+01
   8.2000000e+01
   2.9000000e+01
   2.6000000e+01
   3.2000000e+01
  -7.0000000e+00
  -2.6000000e+01
  -1.8000000e+01
   5.0000000e+01
   8.1000000e+01
   7.6000000e+01
   1.0800000e+02
   1.6600000e+02
   1.6800000e+02
   1.4100000e+02
   1.5200000e+02
   1.6200000e+02
   1.4000000e+02
   9.1000000e+01
   6.0000000e+01
   8.1000000e+01
   5.3000000e+01
   4.0000000e+00
  -2.0000000e+00
   1.6000000e+01
  -1.0000000e+00
  -4.4000000e+01
  -6.5000000e+01
  -4.2000000e+01
   1.1000000e+01
   1.0000000e+01
   2.2000000e+01
   7.2000000e+01
   9.2000000e+01
   1.0800000e+02
   1.3800000e+02
   1.6900000e+02
   1.4200000e+02
   9.1000000e+01
   4.2000000e+01
   2.9000000e+01
  -6.0000000e+00
  -2.8000000e+01
  -1.5000000e+01
   0.0000000e+00
  -5.0000000e+00
  -4.0000000e+01
  -2.3000000e+01
  -6.0000000e+00
   1.9000000e+01
   8.0000000e+00
   4.7000000e+01
   6.9000000e+01
   7.0000000e+01
   6.0000000e+01
   6.3000000e+01
   6.4000000e+01
   2.6000000e+01
  -3.1000000e+01
  -9.5000000e+01
  -1.1600000e+02
  -1.6300000e+02
  -2.4300000e+02
  -2.6700000e+02
  -2.4200000e+02
  -2.6900000e+02
  -3.0600000e+02
  -3.2800000e+02
  -3.1400000e+02
  -2.8700000e+02
  -3.0300000e+02
  -2.8900000e+02
  -2.3900000e+02
  -2.1700000e+02
  -2.3100000e+02
  -2.1500000e+02
  -2.0400000e+02
  -2.5500000e+02
  -3.3200000e+02
  -4.0200000e+02
  -4.0200000e+02
  -4.4100000e+02
  -5.1800000e+02
  -5.2400000e+02
  -5.0600000e+02
  -5.3400000e+02
  -6.0300000e+02
  -6.1000000e+02
  -5.5000000e+02
  -5.2700000e+02
  -5.6100000e+02
  -5.4300000e+02
  -4.9600000e+02
  -4.8800000e+02
  -4.9000000e+02
  -4.6200000e+02
  -4.3600000e+02
  -4.7800000e+02
  -5.8200000e+02
  -6.7900000e+02
  -6.9900000e+02
  -7.4000000e+02
  -7.8400000e+02
  -7.8300000e+02
  -7.8700000e+02
  -8.1400000e+02
  -8.2600000e+02
  -7.7800000e+02
  -6.9700000e+02
  -6.6500000e+02
  -7.0900000e+02
  -7.1500000e+02
  -6.9300000e+02
  -7.1400000e+02
  -7.7300000e+02
  -7.6400000e+02
  -7.1400000e+02
  -7.1700000e+02
  -7.8800000e+02
  -8.2900000e+02
  -7.9900000e+02
  -8.0900000e+02
  -8.6900000e+02
  -8.8600000e+02
  -8.7100000e+02
  -9.3100000e+02
  -9.9900000e+02
  -1.0070000e+03
  -9.6400000e+02
  -9.4800000e+02
  -9.8600000e+02
  -9.6900000e+02
  -9.1300000e+02
  -8.9400000e+02
  -9.1500000e+02
  -9.0100000e+02
  -8.5500000e+02
  -8.7800000e+02
  -9.3400000e+02
  -9.8100000e+02
  -9.7100000e+02
  -9.7700000e+02
  -1.0360000e+03
  -1.0260000e+03
  -9.8800000e+02
  -1.0040000e+03
  -1.0380000e+03
  -1.0480000e+03
  -1.0030000e+03
  -9.8200000e+02
  -1.0260000e+03
  -1.0220000e+03
  -9.5600000e+02
  -9.1000000e+02
  -8.9900000e+02
  -8.7700000e+02
  -8.4800000e+02
  -8.7500000e+02
  -9.4400000e+02
  -9.8400000e+02
  -9.7100000e+02
  -1.0220000e+03
  -1.0910000e+03
  -1.1140000e+03
  -1.1010000e+03
  -1.0990000e+03
  -1.1120000e+03
  -1.0950000e+03
  -1.0810000e+03
  -1.0740000e+03
  -1.1180000e+03
  -1.1060000e+03
  -1.0310000e+03
  -1.0150000e+03
  -1.0360000e+03
  -1.0240000e+03
  -9.9800000e+02
  -1.0080000e+03
  -1.0690000e+03
  -1.1020000e+03
  -1.0890000e+03
  -1.0930000e+03
  -1.1380000e+03
  -1.1480000e+03
  -1.1390000e+03
  -1.1570000e+03
  -1.1940000e+03
  -1.1590000e+03
  -1.1040000e+03
  -1.0660000e+03
  -1.1050000e+03
  -1.0690000e+03
  -1.0050000e+03
  -1.0170000e+03
  -1.0230000e+03
  -1.0090000e+03
  -9.8100000e+02
  -9.8600000e+02
  -1.0440000e+03
  -1.0610000e+03
  -1.0340000e+03
  -1.0390000e+03
  -1.0720000e+03
  -1.1110000e+03
  -1.1130000e+03
  -1.1360000e+03
  -1.1630000e+03
  -1.1450000e+03
  -1.0820000e+03
  -1.0520000e+03
  -1.0910000e+03
  -1.0870000e+03
  -1.0260000e+03
  -1.0230000e+03
  -1.0510000e+03
  -1.0250000e+03
  -9.7700000e+02
  -1.0040000e+03
  -1.0870000e+03
  -1.1490000e+03
  -1.1360000e+03
  -1.1670000e+03
  -1.2240000e+03
  -1.2540000e+03
  -1.2570000e+03
  -1.2680000e+03
  -1.2890000e+03
  -1.2840000e+03
  -1.2530000e+03
  -1.2250000e+03
  -1.2370000e+03
  -1.2090000e+03
  -1.1360000e+03
  -1.1190000e+03
  -1.1330000e+03
  -1.1020000e+03
  -1.0520000e+03
  -1.0660000e+03
  -1.1160000e+03
  -1.1430000e+03
  -1.0990000e+03
  -1.1180000e+03
  -1.1660000e+03
  -1.1780000e+03
  -1.1570000e+03
  -1.2030000e+03
  -1.2560000e+03
  -1.2540000e+03
  -1.1790000e+03
  -1.0940000e+03
  -1.1010000e+03
  -1.0480000e+03
  -9.8400000e+02
  -9.8400000e+02
  -9.9500000e+02
  -9.9100000e+02
  -9.5100000e+02
  -9.5400000e+02
  -9.9400000e+02
  -1.0050000e+03
  -9.7600000e+02
  -9.9400000e+02
  -1.0490000e+03
  -1.0680000e+03
  -1.0260000e+03
  -1.0450000e+03
  -1.0820000e+03
  -1.0950000e+03
  -1.0660000e+03
  -9.8500000e+02
  -9.6800000e+02
  -9.4800000e+02
  -9.0100000e+02
  -8.9800000e+02
  -9.4700000e+02
  -9.5300000e+02
  -9.1700000e+02
  -9.4100000e+02
  -9.9500000e+02
  -1.0080000e+03
  -9.6700000e+02
  -9.5700000e+02
  -9.9700000e+02
  -1.0040000e+03
  -9.7200000e+02
  -1.0150000e+03
  -1.0520000e+03
  -1.0470000e+03
  -1.0050000e+03
  -9.7500000e+02
  -9.5800000e+02
  -9.1300000e+02
  -8.5600000e+02
  -8.3200000e+02
  -8.5000000e+02
  -8.3700000e+02
  -8.1200000e+02
  -8.2100000e+02
  -8.8300000e+02
  -9.3000000e+02
  -9.1100000e+02
  -9.3500000e+02
  -9.7000000e+02
  -9.6700000e+02
  -9.2600000e+02
  -9.5500000e+02
  -1.0040000e+03
  -9.8500000e+02
  -9.2600000e+02
  -9.0300000e+02
  -9.4300000e+02
  -9.2300000e+02
  -8.5000000e+02
  -8.3500000e+02
  -8.4600000e+02
  -8.1900000e+02
  -7.7600000e+02
  -7.5400000e+02
  -7.8500000e+02
  -7.9000000e+02
  -7.5500000e+02
  -7.7400000e+02
  -8.3100000e+02
  -8.4500000e+02
  -8.2500000e+02
  -8.4600000e+02
  -8.8500000e+02
  -8.6500000e+02
  -8.2000000e+02
  -7.7100000e+02
  -7.7900000e+02
  -7.6100000e+02
  -7.0100000e+02
  -6.7500000e+02
  -7.0600000e+02
  -6.9300000e+02
  -6.7300000e+02
  -7.0700000e+02
  -7.9400000e+02
  -8.6100000e+02
  -8.3200000e+02
  -8.4800000e+02
  -8.9200000e+02
  -8.9000000e+02
  -8.5900000e+02
  -8.8700000e+02
  -9.3800000e+02
  -9.1800000e+02
  -8.4900000e+02
  -8.1300000e+02
  -8.2800000e+02
  -8.0900000e+02
  -7.4600000e+02
  -7.5100000e+02
  -7.6300000e+02
  -7.3500000e+02
  -6.9800000e+02
  -7.0600000e+02
  -7.5000000e+02
  -7.9700000e+02
  -7.9700000e+02
  -8.1100000e+02
  -8.6900000e+02
  -8.7500000e+02
  -8.5300000e+02
  -8.6800000e+02
  -9.1400000e+02
  -8.9400000e+02
  -8.6200000e+02
  -8.2500000e+02
  -8.4600000e+02
  -8.0700000e+02
  -7.2800000e+02
  -6.9900000e+02
  -7.0800000e+02
  -6.9900000e+02
  -6.5200000e+02
  -6.5700000e+02
  -6.9500000e+02
  -7.2100000e+02
  -6.9300000e+02
  -6.9000000e+02
  -7.3200000e+02
  -7.5000000e+02
  -7.0800000e+02
  -6.9500000e+02
  -7.3900000e+02
  -7.0200000e+02
  -6.6700000e+02
  -6.1800000e+02
  -6.3000000e+02
  -6.1300000e+02
  -5.5900000e+02
  -5.1800000e+02
  -5.1900000e+02
  -5.0100000e+02
  -4.8200000e+02
  -5.0500000e+02
  -5.5600000e+02
  -6.0200000e+02
  -5.5700000e+02
  -5.5000000e+02
  -5.9100000e+02
  -5.8800000e+02
  -5.8000000e+02
  -6.0000000e+02
  -6.4500000e+02
  -6.3000000e+02
  -5.8800000e+02
  -5.5300000e+02
  -5.5200000e+02
  -5.1300000e+02
  -4.5400000e+02
  -4.3100000e+02
  -4.3500000e+02
  -4.0800000e+02
  -3.6200000e+02
  -3.7100000e+02
  -4.4700000e+02
  -4.8700000e+02
  -4.6800000e+02
  -4.8300000e+02
  -5.4800000e+02
  -5.6300000e+02
  -5.3100000e+02
  -5.2900000e+02
  -5.6400000e+02
  -5.2400000e+02
  -4.7700000e+02
  -4.1400000e+02
  -4.1800000e+02
  -3.9100000e+02
  -3.1100000e+02
  -2.3900000e+02
  -2.0700000e+02
  -1.0900000e+02
   5.9000000e+01
   1.5900000e+02
   2.2100000e+02
   3.0900000e+02
   4.6900000e+02
   6.3200000e+02
   7.9600000e+02
   9.9900000e+02
   1.2230000e+03
   1.3820000e+03
   1.5260000e+03
   1.7320000e+03
   1.9900000e+03
   2.2170000e+03
   2.3530000e+03
   2.5180000e+03
   2.7170000e+03
   2.8510000e+03
   2.9320000e+03
   3.0660000e+03
   3.1690000e+03
   3.2130000e+03
   3.1420000e+03
   3.0070000e+03
   2.8440000e+03
   2.5770000e+03
   2.2070000e+03
   1.9000000e+03
   1.6200000e+03
   1.3320000e+03
   1.0130000e+03
   7.5800000e+02
   5.9800000e+02
   4.4500000e+02
   3.1100000e+02
   2.1900000e+02
   1.2600000e+02
  -1.1000000e+01
  -1.9800000e+02
  -3.2800000e+02
  -3.8700000e+02
  -4.9000000e+02
  -5.9300000e+02
  -6.7200000e+02
  -7.2800000e+02
  -7.6300000e+02
  -7.9200000e+02
  -7.8800000e+02
  -7.0400000e+02
  -6.6000000e+02
  -6.5400000e+02
  -6.0800000e+02
  -5.4400000e+02
  -5.2300000e+02
  -5.5500000e+02
  -5.7600000e+02
  -5.4500000e+02
  -5.6000000e+02
  -6.4400000e+02
  -6.6900000e+02
  -6.7300000e+02
  -7.2700000e+02
  -7.9700000e+02
  -8.4800000e+02
  -8.2000000e+02
  -8.1800000e+02
  -8.8000000e+02
  -8.8000000e+02
  -8.5400000e+02
  -8.5600000e+02
  -8.9600000e+02
  -8.6700000e+02
  -8.1800000e+02
  -7.5300000e+02
  -7.6500000e+02
  -7.5300000e+02
  -7.0100000e+02
  -6.8900000e+02
  -7.2800000e+02
  -7.4200000e+02
  -7.0400000e+02
  -7.2000000e+02
  -7.4900000e+02
  -7.6200000e+02
  -7.2000000e+02
  -7.1400000e+02
  -7.5500000e+02
  -7.5600000e+02
  -7.0400000e+02
  -6.8200000e+02
  -6.8900000e+02
  -6.6400000e+02
  -6.4600000e+02
  -6.1300000e+02
  -6.2900000e+02
  -6.1100000e+02
  -5.6700000e+02
  -5.4900000e+02
  -5.9300000e+02
  -5.8900000e+02
  -5.6800000e+02
  -5.7100000e+02
  -6.2700000e+02
  -6.7400000e+02
  -6.4700000e+02
  -6.6600000e+02
  -7.5200000e+02
  -7.7500000e+02
  -7.5600000e+02
  -7.7600000e+02
  -8.1500000e+02
  -8.0400000e+02
  -7.6100000e+02
  -7.1700000e+02
  -7.2600000e+02
  -7.2100000e+02
  -6.8600000e+02
  -6.8200000e+02
  -6.9400000e+02
  -6.7500000e+02
  -6.1600000e+02
  -6.2000000e+02
  -6.5800000e+02
  -6.8000000e+02
  -6.6700000e+02
  -6.7600000e+02
  -7.2600000e+02
  -7.3400000e+02
  -7.1400000e+02
  -7.3600000e+02
  -7.5900000e+02
  -7.3600000e+02
  -7.0300000e+02
  -6.6400000e+02
  -6.7600000e+02
  -6.7000000e+02
  -6.2000000e+02
  -6.0900000e+02
  -6.2200000e+02
  -6.1800000e+02
  -5.7000000e+02
  -5.6900000e+02
  -6.1800000e+02
  -6.8500000e+02
  -6.8500000e+02
  -7.0300000e+02
  -7.4000000e+02
  -7.4900000e+02
  -7.3900000e+02
  -7.6600000e+02
  -8.1200000e+02
  -8.0600000e+02
  -7.5700000e+02
  -6.9400000e+02
  -7.0100000e+02
  -6.8700000e+02
  -6.2600000e+02
  -5.8300000e+02
  -6.1100000e+02
  -5.9300000e+02
  -5.4100000e+02
  -5.2400000e+02
  -5.6100000e+02
  -5.9800000e+02
  -5.5800000e+02
  -5.5200000e+02
  -6.2100000e+02
  -6.3100000e+02
  -5.9100000e+02
  -5.8200000e+02
  -6.0900000e+02
  -5.7500000e+02
  -5.1800000e+02
  -4.4800000e+02
  -4.4200000e+02
  -4.3600000e+02
  -3.6100000e+02
  -3.2300000e+02
  -3.6100000e+02
  -3.6800000e+02
  -3.3200000e+02
  -3.3900000e+02
  -4.0600000e+02
  -4.5400000e+02
  -4.2900000e+02
  -4.2200000e+02
  -5.0200000e+02
  -5.5100000e+02
  -5.3700000e+02
  -5.2300000e+02
  -5.6300000e+02
  -5.4300000e+02
  -5.1800000e+02
  -4.7400000e+02
  -4.7700000e+02
  -4.6200000e+02
  -3.8500000e+02
  -3.4300000e+02
  -3.6300000e+02
  -3.5400000e+02
  -2.9900000e+02
  -2.9800000e+02
  -3.3800000e+02
  -3.7500000e+02
  -3.4500000e+02
  -3.2700000e+02
  -3.6700000e+02
  -3.8000000e+02
  -3.5400000e+02
  -3.4600000e+02
  -3.6400000e+02
  -3.3600000e+02
  -2.8500000e+02
  -2.1400000e+02
  -1.9000000e+02
  -1.5900000e+02
  -9.1000000e+01
  -4.5000000e+01
  -2.4000000e+01
   1.7000000e+01
   6.4000000e+01
   6.7000000e+01
   1.7000000e+01
  -1.9000000e+01
   1.5000000e+01
   2.9000000e+01
  -2.0000000e+00
  -2.0000000e+01
  -9.0000000e+00
  -1.8000000e+01
  -3.6000000e+01
  -3.9000000e+01
  -7.0000000e+00
   5.1000000e+01
   5.0000000e+01
   6.4000000e+01
   1.2300000e+02
   1.5000000e+02
   1.3900000e+02
   1.6400000e+02
   2.3800000e+02
   2.5200000e+02
   2.1600000e+02
   1.8400000e+02
   1.9400000e+02
   1.8100000e+02
   1.2400000e+02
   1.0300000e+02
   1.1600000e+02
   1.0400000e+02
   4.2000000e+01
   7.8000000e+01
   1.2800000e+02
   1.4700000e+02
   1.2700000e+02
   1.2400000e+02
   1.5900000e+02
   1.6100000e+02
   1.5000000e+02
   1.5100000e+02
   1.6200000e+02
   1.5000000e+02
   9.7000000e+01
   3.9000000e+01
   3.4000000e+01
   1.7000000e+01
  -5.4000000e+01
  -1.0400000e+02
  -1.0200000e+02
  -1.2500000e+02
  -1.5800000e+02
  -1.7000000e+02
  -1.3800000e+02
  -9.4000000e+01
  -1.0700000e+02
  -1.1700000e+02
  -7.4000000e+01
  -7.6000000e+01
  -1.0600000e+02
  -1.1700000e+02
  -8.6000000e+01
  -1.1300000e+02
  -1.9800000e+02
  -2.7700000e+02
  -2.9200000e+02
  -3.0200000e+02
  -3.8700000e+02
  -4.1000000e+02
  -3.9000000e+02
  -4.1800000e+02
  -4.7900000e+02
  -4.9800000e+02
  -4.6200000e+02
  -4.4600000e+02
  -4.8600000e+02
  -5.0200000e+02
  -4.7100000e+02
  -4.5300000e+02
  -5.0500000e+02
  -5.1300000e+02
  -4.8500000e+02
  -5.0100000e+02
  -5.5900000e+02
  -6.0500000e+02
  -6.0500000e+02
  -6.2200000e+02
  -6.8200000e+02
  -7.0900000e+02
  -6.6700000e+02
  -6.7800000e+02
  -7.1600000e+02
  -7.1200000e+02
  -6.8500000e+02
  -6.6800000e+02
  -6.8100000e+02
  -6.6900000e+02
  -6.0200000e+02
  -5.6600000e+02
  -5.8600000e+02
  -5.8000000e+02
  -5.4800000e+02
  -5.6500000e+02
  -6.2200000e+02
  -6.8000000e+02
  -6.8900000e+02
  -6.9500000e+02
  -7.7100000e+02
  -8.0400000e+02
  -7.8800000e+02
  -7.8000000e+02
  -8.1300000e+02
  -7.9600000e+02
  -7.6100000e+02
  -7.1400000e+02
  -7.3200000e+02
  -7.3100000e+02
  -6.8600000e+02
  -6.6000000e+02
  -6.8700000e+02
  -6.6300000e+02
  -6.2000000e+02
  -6.3300000e+02
  -6.8000000e+02
  -7.3900000e+02
  -7.6000000e+02
  -7.7900000e+02
  -8.3600000e+02
  -8.5700000e+02
  -8.6300000e+02
  -8.7500000e+02
  -9.1600000e+02
  -9.1700000e+02
  -8.7300000e+02
  -8.5500000e+02
  -8.9400000e+02
  -8.8500000e+02
  -8.4200000e+02
  -7.9600000e+02
  -8.0400000e+02
  -8.0600000e+02
  -7.5600000e+02
  -7.4400000e+02
  -7.6000000e+02
  -7.9500000e+02
  -8.0900000e+02
  -8.2200000e+02
  -8.9700000e+02
  -9.4300000e+02
  -9.0900000e+02
  -9.1900000e+02
  -9.4300000e+02
  -9.3000000e+02
  -8.9000000e+02
  -8.3700000e+02
  -8.4000000e+02
  -8.3300000e+02
  -7.7000000e+02
  -7.6800000e+02
  -7.9900000e+02
  -7.8200000e+02
  -7.2200000e+02
  -7.2500000e+02
  -7.4300000e+02
  -7.7100000e+02
  -7.1200000e+02
  -6.6300000e+02
  -6.9300000e+02
  -7.1000000e+02
  -6.9400000e+02
  -7.3700000e+02
  -8.0900000e+02
  -8.3600000e+02
  -8.1600000e+02
  -7.6400000e+02
  -7.6900000e+02
  -7.3500000e+02
  -6.4400000e+02
  -5.7500000e+02
  -5.3800000e+02
  -5.1400000e+02
  -4.7700000e+02
  -4.8000000e+02
  -5.1800000e+02
  -5.8200000e+02
  -5.9300000e+02
  -6.1500000e+02
  -6.8000000e+02
  -7.1200000e+02
  -6.9600000e+02
  -6.9800000e+02
  -7.1200000e+02
  -6.8200000e+02
  -6.2100000e+02
  -5.7700000e+02
  -5.9600000e+02
  -5.7900000e+02
  -5.3000000e+02
  -5.3600000e+02
  -5.7800000e+02
  -5.8500000e+02
  -5.5500000e+02
  -5.7200000e+02
  -6.6000000e+02
  -6.9800000e+02
  -6.7900000e+02
  -6.6600000e+02
  -6.9300000e+02
  -7.1400000e+02
  -6.9500000e+02
  -6.9800000e+02
  -7.4300000e+02
  -7.2000000e+02
  -6.6800000e+02
  -6.2500000e+02
  -6.4600000e+02
  -6.5100000e+02
  -5.9700000e+02
  -5.6900000e+02
  -5.8900000e+02
  -6.1300000e+02
  -5.8000000e+02
  -6.0500000e+02
  -6.4600000e+02
  -6.7900000e+02
  -6.6100000e+02
  -6.6200000e+02
  -7.1700000e+02
  -7.6300000e+02
  -7.5900000e+02
  -7.2700000e+02
  -7.5800000e+02
  -7.6500000e+02
  -7.2300000e+02
  -6.5900000e+02
  -6.5100000e+02
  -6.3900000e+02
  -5.9300000e+02
  -5.4700000e+02
  -5.3700000e+02
  -5.3400000e+02
  -4.9400000e+02
  -5.1000000e+02
  -5.5500000e+02
  -5.8100000e+02
  -5.9400000e+02
  -6.1300000e+02
  -6.4600000e+02
  -6.6300000e+02
  -5.9400000e+02
  -5.7500000e+02
  -6.2300000e+02
  -6.2800000e+02
  -5.9800000e+02
  -5.4400000e+02
  -5.4700000e+02
  -5.3300000e+02
  -4.7800000e+02
  -4.3800000e+02
  -4.5300000e+02
  -4.3600000e+02
  -3.7600000e+02
  -3.7100000e+02
  -4.1100000e+02
  -4.6100000e+02
  -4.7800000e+02
  -4.9600000e+02
  -5.5400000e+02
  -6.0500000e+02
  -5.8300000e+02
  -5.7300000e+02
  -5.9900000e+02
  -5.8700000e+02
  -5.5000000e+02
  -5.0300000e+02
  -5.2100000e+02
  -5.2400000e+02
  -4.7500000e+02
  -4.5000000e+02
  -4.6400000e+02
  -4.5200000e+02
  -4.0600000e+02
  -3.9200000e+02
  -4.4700000e+02
  -4.9900000e+02
  -5.0000000e+02
  -4.7900000e+02
  -4.9700000e+02
  -5.0800000e+02
  -4.9100000e+02
  -4.6500000e+02
  -5.0000000e+02
  -4.9700000e+02
  -4.4800000e+02
  -4.3300000e+02
  -4.3600000e+02
  -4.3700000e+02
  -3.8600000e+02
  -3.6800000e+02
  -3.6800000e+02
  -3.4700000e+02
  -3.0400000e+02
  -2.9700000e+02
  -3.5500000e+02
  -4.0600000e+02
  -4.1000000e+02
  -4.1600000e+02
  -4.8000000e+02
  -4.9400000e+02
  -4.6500000e+02
  -4.6400000e+02
  -4.9700000e+02
  -4.9100000e+02
  -4.1400000e+02
  -3.5500000e+02
  -3.3500000e+02
  -3.2000000e+02
  -2.5400000e+02
  -2.2800000e+02
  -2.4000000e+02
  -2.2400000e+02
  -1.6800000e+02
  -1.6800000e+02
  -1.9600000e+02
  -2.6200000e+02
  -2.7000000e+02
  -2.7000000e+02
  -3.3700000e+02
  -3.7000000e+02
  -3.6000000e+02
  -3.6400000e+02
  -4.0100000e+02
  -3.8900000e+02
  -3.5400000e+02
  -3.0900000e+02
  -3.1900000e+02
  -3.2900000e+02
  -2.6600000e+02
  -2.1400000e+02
  -2.0900000e+02
  -1.9300000e+02
  -1.5900000e+02
  -1.7000000e+02
  -2.0600000e+02
  -2.5500000e+02
  -2.4900000e+02
  -2.3200000e+02
  -2.8400000e+02
  -3.0700000e+02
  -2.9400000e+02
  -2.9000000e+02
  -3.4500000e+02
  -3.4300000e+02
  -3.2200000e+02
  -2.5900000e+02
  -2.3200000e+02
  -2.4000000e+02
  -2.0300000e+02
  -1.7100000e+02
  -2.0200000e+02
  -1.8900000e+02
  -1.2800000e+02
  -1.0300000e+02
  -1.5400000e+02
  -2.1500000e+02
  -2.4100000e+02
  -2.4100000e+02
  -2.8700000e+02
  -3.1100000e+02
  -2.8200000e+02
  -2.5500000e+02
  -2.7700000e+02
  -2.6700000e+02
  -2.2200000e+02
  -1.9800000e+02
  -2.3400000e+02
  -2.3100000e+02
  -1.9800000e+02
  -1.8600000e+02
  -2.1200000e+02
  -2.1700000e+02
  -1.6700000e+02
  -1.5900000e+02
  -2.3400000e+02
  -2.8500000e+02
  -2.8000000e+02
  -3.0400000e+02
  -3.4500000e+02
  -3.6000000e+02
  -3.4500000e+02
  -3.2800000e+02
  -3.5300000e+02
  -3.6700000e+02
  -3.2800000e+02
  -2.8000000e+02
  -2.5800000e+02
  -2.4200000e+02
  -1.5900000e+02
  -1.4700000e+02
  -1.4800000e+02
  -1.5300000e+02
  -1.1800000e+02
  -1.2400000e+02
  -1.6200000e+02
  -1.7900000e+02
  -1.8100000e+02
  -1.5900000e+02
  -1.9200000e+02
  -2.1900000e+02
  -1.7700000e+02
  -1.9100000e+02
  -2.5300000e+02
  -2.6700000e+02
  -1.8800000e+02
  -1.3300000e+02
  -9.6000000e+01
  -4.9000000e+01
   7.2000000e+01
   2.1200000e+02
   3.2800000e+02
   4.7100000e+02
   6.4600000e+02
   8.0500000e+02
   9.5400000e+02
   1.0880000e+03
   1.2720000e+03
   1.4620000e+03
   1.6050000e+03
   1.7630000e+03
   1.9480000e+03
   2.1170000e+03
   2.2170000e+03
   2.3710000e+03
   2.5770000e+03
   2.7680000e+03
   2.8750000e+03
   2.9760000e+03
   3.1040000e+03
   3.1900000e+03
   3.2120000e+03
   3.1610000e+03
   3.0900000e+03
   2.9600000e+03
   2.7120000e+03
   2.4110000e+03
   2.1670000e+03
   1.9470000e+03
   1.6440000e+03
   1.3310000e+03
   1.0720000e+03
   8.5700000e+02
   6.1900000e+02
   4.4800000e+02
   3.2000000e+02
   2.4400000e+02
   1.3600000e+02
   2.4000000e+01
  -4.4000000e+01
  -1.3500000e+02
  -2.4300000e+02
  -3.0500000e+02
  -3.0400000e+02
  -3.2500000e+02
  -3.5000000e+02
  -3.9900000e+02
  -3.5800000e+02
  -3.1000000e+02
  -3.1800000e+02
  -3.1300000e+02
  -2.5200000e+02
  -2.2500000e+02
  -2.5300000e+02
  -2.5100000e+02
  -2.0400000e+02
  -1.6600000e+02
  -2.0200000e+02
  -2.4000000e+02
  -2.2000000e+02
  -2.1000000e+02
  -2.5000000e+02
  -2.6300000e+02
  -2.4400000e+02
  -2.4000000e+02
  -2.9000000e+02
  -3.1900000e+02
  -2.9900000e+02
  -2.7500000e+02
  -3.0100000e+02
  -3.0400000e+02
  -2.5600000e+02
  -2.2400000e+02
  -2.7000000e+02
  -2.8200000e+02
  -2.6800000e+02
  -2.2100000e+02
  -2.3000000e+02
  -2.3500000e+02
  -1.9900000e+02
  -1.7800000e+02
  -1.9900000e+02
  -2.0300000e+02
  -1.6300000e+02
  -1.6500000e+02
  -2.2100000e+02
  -2.5600000e+02
  -2.5400000e+02
  -2.5200000e+02
  -2.7900000e+02
  -3.1300000e+02
  -3.0200000e+02
  -3.1100000e+02
  -3.6100000e+02
  -3.6100000e+02
  -3.2900000e+02
  -2.7900000e+02
  -2.8100000e+02
  -2.8000000e+02
  -2.3400000e+02
  -1.8800000e+02
  -2.1900000e+02
  -2.1900000e+02
  -1.9700000e+02
  -1.9000000e+02
  -2.1200000e+02
  -2.2800000e+02
  -1.9800000e+02
  -2.0000000e+02
  -2.2600000e+02
  -2.3900000e+02
  -2.0000000e+02
  -1.6500000e+02
  -1.8800000e+02
  -2.0600000e+02
  -1.9200000e+02
  -1.8500000e+02
  -2.3500000e+02
  -2.7400000e+02
  -2.0800000e+02
  -1.4200000e+02
  -1.3900000e+02
  -1.2500000e+02
  -6.4000000e+01
   1.1000000e+01
   3.2000000e+01
  -1.8000000e+01
  -3.7000000e+01
  -4.4000000e+01
  -9.7000000e+01
  -1.4300000e+02
  -1.3800000e+02
  -1.3300000e+02
  -1.9000000e+02
  -1.8600000e+02
  -1.3000000e+02
  -5.6000000e+01
  -3.9000000e+01
  -2.4000000e+01
   3.9000000e+01
   7.6000000e+01
   6.4000000e+01
   5.7000000e+01
   8.9000000e+01
   8.8000000e+01
   3.0000000e+01
  -9.0000000e+00
  -2.0000000e+00
  -1.5000000e+01
  -8.4000000e+01
  -9.6000000e+01
  -6.2000000e+01
  -7.0000000e+00
  -3.6000000e+01
  -2.4000000e+01
   1.3000000e+01
   1.0000000e+02
   1.3800000e+02
   1.6300000e+02
   2.3800000e+02
   2.6900000e+02
   2.5500000e+02
   2.5100000e+02
   2.9300000e+02
   3.2300000e+02
   2.8800000e+02
   2.3500000e+02
   2.3000000e+02
   2.2200000e+02
   1.6800000e+02
   1.4200000e+02
   1.4300000e+02
   1.5700000e+02
   1.1600000e+02
   1.3000000e+02
   1.8600000e+02
   2.6600000e+02
   2.8800000e+02
   2.9200000e+02
   3.6800000e+02
   4.0100000e+02
   3.8800000e+02
   3.9100000e+02
   4.5100000e+02
   4.9100000e+02
   4.5600000e+02
   4.1200000e+02
   4.0600000e+02
   4.2400000e+02
   3.8200000e+02
   3.5100000e+02
   3.7100000e+02
   3.9500000e+02
   3.6000000e+02
   3.7000000e+02
   4.0800000e+02
   4.6200000e+02
   4.9100000e+02
   4.8500000e+02
   5.5000000e+02
   5.9000000e+02
   5.6500000e+02
   5.6300000e+02
   6.1800000e+02
   6.2600000e+02
   5.9400000e+02
   5.5900000e+02
   5.6600000e+02
   5.9600000e+02
   5.5700000e+02
   5.2000000e+02
   5.4800000e+02
   5.7700000e+02
   5.5900000e+02
   5.6900000e+02
   6.0300000e+02
   6.6600000e+02
   6.7200000e+02
   7.0600000e+02
   7.7800000e+02
   8.3600000e+02
   8.2700000e+02
   8.2000000e+02
   8.4100000e+02
   8.4900000e+02
   8.1600000e+02
   7.9100000e+02
   8.3200000e+02
   8.6900000e+02
   8.2200000e+02
   7.6900000e+02
   7.9200000e+02
   7.9600000e+02
   7.6000000e+02
   7.5800000e+02
   8.0800000e+02
   8.5800000e+02
   8.4800000e+02
   8.3200000e+02
   8.8300000e+02
   9.4500000e+02
   9.4700000e+02
   9.7000000e+02
   1.0140000e+03
   1.0200000e+03
   9.8300000e+02
   9.3300000e+02
   9.2700000e+02
   9.1300000e+02
   8.6300000e+02
   8.3600000e+02
   8.6500000e+02
   8.5700000e+02
   8.0900000e+02
   8.0500000e+02
   8.2700000e+02
   8.6400000e+02
   8.6800000e+02
   8.7000000e+02
   9.2500000e+02
   9.6300000e+02
   9.3300000e+02
   8.9400000e+02
   9.0600000e+02
   8.8100000e+02
   8.3800000e+02
   7.9400000e+02
   7.8400000e+02
   7.6500000e+02
   6.8900000e+02
   6.5700000e+02
   6.4000000e+02
   6.1100000e+02
   5.4000000e+02
   5.0800000e+02
   5.2500000e+02
   5.6300000e+02
   5.5900000e+02
   5.4100000e+02
   5.7700000e+02
   6.0600000e+02
   5.7700000e+02
   5.1800000e+02
   5.4500000e+02
   5.3200000e+02
   4.7300000e+02
   4.2000000e+02
   4.1300000e+02
   4.0300000e+02
   3.3100000e+02
   2.4800000e+02
   2.4500000e+02
   2.3200000e+02
   1.5900000e+02
   1.4400000e+02
   1.6400000e+02
   1.6500000e+02
   1.4700000e+02
   1.2300000e+02
   1.5900000e+02
   2.0100000e+02
   1.7000000e+02
   1.6400000e+02
   1.8000000e+02
   1.7000000e+02
   1.1600000e+02
   5.4000000e+01
   4.1000000e+01
   4.1000000e+01
  -1.2000000e+01
  -6.8000000e+01
  -7.6000000e+01
  -6.6000000e+01
  -1.1400000e+02
  -1.2200000e+02
  -7.3000000e+01
  -8.0000000e+00
   4.0000000e+00
  -1.2000000e+01
   3.1000000e+01
   6.8000000e+01
   4.8000000e+01
   3.4000000e+01
   5.0000000e+01
   4.9000000e+01
   1.4000000e+01
  -3.6000000e+01
  -5.1000000e+01
  -2.8000000e+01
  -6.8000000e+01
  -1.0100000e+02
  -8.5000000e+01
  -7.8000000e+01
  -1.1100000e+02
  -1.1900000e+02
  -9.3000000e+01
  -7.1000000e+01
  -6.7000000e+01
  -7.9000000e+01
  -3.5000000e+01
  -1.0000000e+01
   6.0000000e+00
   5.0000000e+00
   5.9000000e+01
   7.0000000e+01
   2.5000000e+01
  -2.4000000e+01
  -1.6000000e+01
   1.0000000e+01
  -3.5000000e+01
  -6.1000000e+01
  -4.3000000e+01
  -2.3000000e+01
  -6.3000000e+01
  -7.7000000e+01
  -5.0000000e+01
   1.3000000e+01
   2.4000000e+01
   1.3000000e+01
   7.5000000e+01
   1.1700000e+02
   1.2300000e+02
   1.1600000e+02
   1.4300000e+02
   1.3100000e+02
   9.0000000e+01
   2.2000000e+01
   2.2000000e+01
   1.0000000e+01
  -6.1000000e+01
  -1.0100000e+02
  -8.0000000e+01
  -6.7000000e+01
  -9.6000000e+01
  -1.0800000e+02
  -7.0000000e+01
  -2.1000000e+01
  -1.3000000e+01
  -1.3000000e+01
   3.9000000e+01
   5.6000000e+01
   3.8000000e+01
   3.9000000e+01
   7.9000000e+01
   9.5000000e+01
   5.2000000e+01
   1.8000000e+01
   1.4000000e+01
   1.5000000e+01
  -1.1000000e+01
  -3.7000000e+01
  -1.9000000e+01
  -1.0000000e+00
  -4.6000000e+01
  -5.8000000e+01
  -2.9000000e+01
   2.9000000e+01
   4.6000000e+01
   2.8000000e+01
   6.9000000e+01
   1.1100000e+02
   1.1800000e+02
   1.2800000e+02
   1.5900000e+02
   1.7200000e+02
   1.4200000e+02
   8.6000000e+01
   9.8000000e+01
   1.1100000e+02
   6.7000000e+01
   3.6000000e+01
   4.7000000e+01
   4.6000000e+01
   5.0000000e+00
  -9.0000000e+00
   1.0000000e+01
   5.8000000e+01
   4.0000000e+01
   2.5000000e+01
   7.4000000e+01
   1.1800000e+02
   1.1100000e+02
   1.0000000e+02
   1.1700000e+02
   1.1100000e+02
   6.3000000e+01
  -1.5000000e+01
  -2.6000000e+01
  -4.2000000e+01
  -1.2700000e+02
  -1.8700000e+02
  -1.8000000e+02
  -1.7900000e+02
  -2.1500000e+02
  -2.0600000e+02
  -1.5300000e+02
  -1.2000000e+02
  -1.1000000e+02
  -1.2500000e+02
  -8.3000000e+01
  -4.9000000e+01
  -6.0000000e+01
  -7.9000000e+01
  -2.6000000e+01
  -5.0000000e+00
  -5.2000000e+01
  -1.1500000e+02
  -1.2300000e+02
  -1.0600000e+02
  -1.2400000e+02
  -1.3600000e+02
  -1.4200000e+02
  -1.2400000e+02
  -1.7700000e+02
  -1.9800000e+02
  -1.5200000e+02
  -7.7000000e+01
  -7.6000000e+01
  -7.8000000e+01
  -2.2000000e+01
   6.0000000e+00
  -2.2000000e+01
  -6.0000000e+00
   4.5000000e+01
   8.1000000e+01
   5.4000000e+01
   1.7000000e+01
  -3.0000000e+00
  -1.0000000e+00
  -4.9000000e+01
  -8.3000000e+01
  -7.7000000e+01
  -7.0000000e+01
  -8.6000000e+01
  -6.4000000e+01
   1.0000000e+01
   8.7000000e+01
   1.1000000e+02
   8.1000000e+01
   9.2000000e+01
   8.1000000e+01
   1.4000000e+01
  -3.1000000e+01
   1.5000000e+01
   4.4000000e+01
   2.7000000e+01
  -2.6000000e+01
  -9.0000000e+00
   3.2000000e+01
   2.1000000e+01
  -2.8000000e+01
  -4.3000000e+01
  -6.5000000e+01
  -1.4400000e+02
  -1.5900000e+02
  -1.3800000e+02
  -9.4000000e+01
  -8.6000000e+01
  -1.2000000e+02
  -9.8000000e+01
  -6.4000000e+01
  -5.9000000e+01
  -5.9000000e+01
   3.0000000e+00
   2.4000000e+01
  -1.8000000e+01
  -5.8000000e+01
  -6.2000000e+01
  -6.5000000e+01
  -1.2500000e+02
  -1.8500000e+02
  -1.8600000e+02
  -1.8500000e+02
  -2.1600000e+02
  -2.2000000e+02
  -1.8600000e+02
  -1.4300000e+02
  -1.1600000e+02
  -1.1400000e+02
  -2.4000000e+01
   1.4000000e+01
   1.8000000e+01
   2.3000000e+01
   6.2000000e+01
   5.7000000e+01
   8.0000000e+00
  -3.4000000e+01
  -4.1000000e+01
  -1.3000000e+01
  -5.1000000e+01
  -9.9000000e+01
  -1.0600000e+02
  -1.2400000e+02
  -1.7800000e+02
  -1.7700000e+02
  -1.3800000e+02
  -8.3000000e+01
  -5.9000000e+01
  -5.1000000e+01
   6.0000000e+00
   5.4000000e+01
   7.1000000e+01
   7.0000000e+01
   1.0000000e+02
   9.5000000e+01
   5.4000000e+01
   1.6000000e+01
   0.0000000e+00
  -2.0000000e+00
  -6.7000000e+01
  -1.1700000e+02
  -1.2200000e+02
  -1.1600000e+02
  -1.6800000e+02
  -2.0300000e+02
  -1.7300000e+02
  -1.2100000e+02
  -1.0900000e+02
  -1.2100000e+02
  -7.6000000e+01
  -4.5000000e+01
  -7.0000000e+01
  -7.1000000e+01
  -6.1000000e+01
  -6.1000000e+01
  -1.0500000e+02
  -1.6600000e+02
  -1.8300000e+02
  -1.6600000e+02
  -1.9700000e+02
  -2.4700000e+02
  -2.4700000e+02
  -2.5400000e+02
  -2.8500000e+02
  -2.9700000e+02
  -2.6300000e+02
  -2.0300000e+02
  -1.8500000e+02
  -2.0400000e+02
  -1.3900000e+02
  -9.1000000e+01
  -1.0000000e+02
  -1.2700000e+02
  -8.8000000e+01
  -5.7000000e+01
  -8.1000000e+01
  -1.2600000e+02
  -1.5400000e+02
  -1.4500000e+02
  -1.8500000e+02
  -2.0600000e+02
  -1.9500000e+02
  -1.6600000e+02
  -1.8800000e+02
  -1.8800000e+02
  -1.3900000e+02
  -8.8000000e+01
  -6.7000000e+01
  -7.5000000e+01
  -1.2000000e+01
   3.6000000e+01
   4.7000000e+01
   5.3000000e+01
   9.0000000e+01
   9.4000000e+01
   5.5000000e+01
   9.0000000e+00
  -9.0000000e+00
   0.0000000e+00
  -4.3000000e+01
  -9.4000000e+01
  -1.0100000e+02
  -8.9000000e+01
  -1.1300000e+02
  -1.0000000e+02
  -5.1000000e+01
   3.0000000e+00
   1.3000000e+01
  -3.0000000e+00
   4.6000000e+01
   7.2000000e+01
   7.1000000e+01
   6.9000000e+01
   1.0300000e+02
   1.2900000e+02
   1.0100000e+02
   5.0000000e+01
   4.9000000e+01
   6.5000000e+01
   3.5000000e+01
   2.0000000e+01
   5.2000000e+01
   6.9000000e+01
   1.7000000e+01
  -1.2000000e+01
   3.1000000e+01
   1.0300000e+02
   1.4800000e+02
   1.8800000e+02
   3.2500000e+02
   4.7500000e+02
   6.0700000e+02
   7.3000000e+02
   8.9300000e+02
   1.0980000e+03
   1.2670000e+03
   1.4260000e+03
   1.6040000e+03
   1.8140000e+03
   1.9690000e+03
   2.1080000e+03
   2.2770000e+03
   2.4520000e+03
   2.5760000e+03
   2.7520000e+03
   2.9580000e+03
   3.1260000e+03
   3.2400000e+03
   3.3320000e+03
   3.4520000e+03
   3.5450000e+03
   3.5750000e+03
   3.5300000e+03
   3.4870000e+03
   3.3580000e+03
   3.1110000e+03
   2.7920000e+03
   2.5390000e+03
   2.3370000e+03
   2.0550000e+03
   1.7380000e+03
   1.4820000e+03
   1.2630000e+03
   1.0220000e+03
   8.4700000e+02
   7.1000000e+02
   6.0700000e+02
   4.9200000e+02
   3.5900000e+02
   3.0200000e+02
   2.6600000e+02
   1.8600000e+02
   9.6000000e+01
   5.3000000e+01
   3.1000000e+01
   1.1000000e+01
  -3.6000000e+01
  -1.3000000e+01
   2.7000000e+01
   2.7000000e+01
   5.3000000e+01
   1.1700000e+02
   1.5500000e+02
   1.2200000e+02
   9.1000000e+01
   1.1500000e+02
   1.4300000e+02
   1.1100000e+02
   5.6000000e+01
   5.9000000e+01
   5.5000000e+01
   2.3000000e+01
  -1.7000000e+01
  -1.0000000e+01
  -1.2000000e+01
  -5.7000000e+01
  -1.1200000e+02
  -1.2800000e+02
  -9.4000000e+01
  -1.3200000e+02
  -1.7500000e+02
  -1.6600000e+02
  -1.4600000e+02
  -1.9700000e+02
  -2.0800000e+02
  -1.6800000e+02
  -1.3200000e+02
  -1.2900000e+02
  -1.2900000e+02
  -7.5000000e+01
  -4.1000000e+01
  -5.6000000e+01
  -6.9000000e+01
  -3.4000000e+01
   2.0000000e+00
  -1.9000000e+01
  -6.4000000e+01
  -5.4000000e+01
  -1.3000000e+01
  -3.7000000e+01
  -7.9000000e+01
  -8.4000000e+01
  -8.3000000e+01
  -1.3200000e+02
  -1.6400000e+02
  -1.1400000e+02
  -5.6000000e+01
  -3.8000000e+01
  -6.4000000e+01
   3.0000000e+00
   3.3000000e+01
   1.0000000e+00
  -3.2000000e+01
  -1.0000000e+00
   1.8000000e+01
  -2.0000000e+00
  -4.5000000e+01
  -4.9000000e+01
  -3.8000000e+01
  -7.9000000e+01
  -1.2700000e+02
  -1.1300000e+02
  -1.1900000e+02
  -1.5900000e+02
  -1.5300000e+02
  -1.1500000e+02
  -4.4000000e+01
  -3.6000000e+01
  -6.3000000e+01
  -1.9000000e+01
   2.7000000e+01
   2.3000000e+01
   1.9000000e+01
   5.3000000e+01
   6.9000000e+01
   6.2000000e+01
   9.0000000e+00
  -6.0000000e+00
   1.2000000e+01
  -3.4000000e+01
  -8.3000000e+01
  -7.5000000e+01
  -2.9000000e+01
  -5.5000000e+01
  -7.1000000e+01
  -2.3000000e+01
   1.9000000e+01
   2.5000000e+01
   2.0000000e+00
   5.8000000e+01
   1.0800000e+02
   1.1400000e+02
   1.0100000e+02
   1.2500000e+02
   1.5900000e+02
   1.5200000e+02
   9.9000000e+01
   9.6000000e+01
   1.1800000e+02
   7.7000000e+01
   4.9000000e+01
   6.4000000e+01
   1.0200000e+02
   7.6000000e+01
   6.5000000e+01
   9.4000000e+01
   1.5500000e+02
   1.8400000e+02
   1.9800000e+02
   2.2800000e+02
   2.6500000e+02
   2.8800000e+02
   2.9600000e+02
   3.2800000e+02
   3.5200000e+02
   3.2900000e+02
   2.6700000e+02
   2.6900000e+02
   3.1500000e+02
   2.8900000e+02
   2.6000000e+02
   2.5800000e+02
   2.7400000e+02
   2.5400000e+02
   2.6300000e+02
   3.1800000e+02
   3.7400000e+02
   3.9400000e+02
   3.7900000e+02
   4.2400000e+02
   5.0200000e+02
   5.2000000e+02
   5.3200000e+02
   5.7600000e+02
   6.0900000e+02
   5.9600000e+02
   5.4500000e+02
   5.2300000e+02
   5.4100000e+02
   5.0500000e+02
   4.5800000e+02
   4.6200000e+02
   4.9900000e+02
   4.8500000e+02
   4.7700000e+02
   5.2900000e+02
   6.1200000e+02
   6.7700000e+02
   7.0800000e+02
   7.7900000e+02
   8.4700000e+02
   8.5100000e+02
   8.2400000e+02
   8.4600000e+02
   8.4700000e+02
   7.8000000e+02
   6.8500000e+02
   6.5900000e+02
   6.8500000e+02
   6.5300000e+02
   6.5800000e+02
   7.1500000e+02
   7.9100000e+02
   7.9300000e+02
   7.7200000e+02
   8.0600000e+02
   8.5700000e+02
   8.5900000e+02
   8.2300000e+02
   8.5300000e+02
   8.8500000e+02
   8.8900000e+02
   8.9000000e+02
   9.4400000e+02
   9.7300000e+02
   9.6800000e+02
   9.3400000e+02
   9.1800000e+02
   9.5000000e+02
   8.9500000e+02
   8.3700000e+02
   8.2100000e+02
   8.0100000e+02
   7.6600000e+02
   7.3200000e+02
   7.2300000e+02
   7.6000000e+02
   7.5900000e+02
   7.2800000e+02
   7.7000000e+02
   8.3800000e+02
   8.6700000e+02
   8.6100000e+02
   9.0000000e+02
   9.3100000e+02
   9.0200000e+02
   8.4500000e+02
   8.0900000e+02
   7.9700000e+02
   7.4700000e+02
   7.0300000e+02
   6.7600000e+02
   6.7300000e+02
   6.2300000e+02
   6.0600000e+02
   6.2500000e+02
   6.6700000e+02
   6.7200000e+02
   6.4700000e+02
   6.6700000e+02
   6.8600000e+02
   6.6500000e+02
   6.1800000e+02
   6.6500000e+02
   6.7800000e+02
   6.2300000e+02
   5.5500000e+02
   5.3100000e+02
   5.4100000e+02
   4.9200000e+02
   4.3000000e+02
   4.2200000e+02
   4.1300000e+02
   3.7200000e+02
   3.3500000e+02
   3.6600000e+02
   3.8400000e+02
   3.4400000e+02
   2.9000000e+02
   3.1500000e+02
   3.3300000e+02
   3.1900000e+02
   2.6400000e+02
   2.7100000e+02
   2.5600000e+02
   2.2000000e+02
   1.4100000e+02
   1.2000000e+02
   1.1500000e+02
   1.4000000e+01
  -7.9000000e+01
  -1.2700000e+02
  -1.4000000e+02
  -1.7700000e+02
  -2.0000000e+02
  -1.8000000e+02
  -1.6000000e+02
  -1.6000000e+02
  -1.6700000e+02
  -1.3600000e+02
  -8.6000000e+01
  -9.2000000e+01
  -1.0600000e+02
  -9.5000000e+01
  -1.0200000e+02
  -1.3700000e+02
  -2.0300000e+02
  -2.2900000e+02
  -2.0200000e+02
  -2.3800000e+02
  -2.6900000e+02
  -2.5100000e+02
  -2.5600000e+02
  -3.2400000e+02
  -3.6900000e+02
  -3.3900000e+02
  -2.8100000e+02
  -2.4600000e+02
  -2.5500000e+02
  -2.1900000e+02
  -1.4700000e+02
  -1.2800000e+02
  -1.5400000e+02
  -1.2200000e+02
  -7.5000000e+01
  -7.2000000e+01
  -1.2700000e+02
  -1.4300000e+02
  -1.0900000e+02
  -1.4300000e+02
  -1.5900000e+02
  -1.6200000e+02
  -1.5900000e+02
  -2.0000000e+02
  -2.1000000e+02
  -1.7800000e+02
  -1.1400000e+02
  -9.7000000e+01
  -9.1000000e+01
  -2.0000000e+01
   2.7000000e+01
   1.3000000e+01
  -1.1000000e+01
   2.9000000e+01
   4.3000000e+01
   2.6000000e+01
  -3.6000000e+01
  -7.1000000e+01
  -2.2000000e+01
  -5.3000000e+01
  -1.2700000e+02
  -1.3000000e+02
  -1.0400000e+02
  -1.2600000e+02
  -1.6200000e+02
  -1.5300000e+02
  -1.2200000e+02
  -1.1800000e+02
  -1.3300000e+02
  -8.1000000e+01
  -2.9000000e+01
  -4.8000000e+01
  -6.3000000e+01
  -4.9000000e+01
  -3.5000000e+01
  -7.0000000e+01
  -1.4000000e+02
  -1.8000000e+02
  -1.6400000e+02
  -2.0000000e+02
  -2.4400000e+02
  -2.4500000e+02
  -2.0200000e+02
  -2.2300000e+02
  -2.4200000e+02
  -2.1000000e+02
  -1.7300000e+02
  -1.4600000e+02
  -1.6500000e+02
  -1.0200000e+02
  -5.6000000e+01
  -4.3000000e+01
  -7.1000000e+01
  -4.7000000e+01
  -3.3000000e+01
  -5.1000000e+01
  -8.8000000e+01
  -1.1500000e+02
  -9.1000000e+01
  -1.2300000e+02
  -1.8900000e+02
  -1.8800000e+02
  -1.6700000e+02
  -1.8200000e+02
  -1.9600000e+02
  -1.7700000e+02
  -1.2100000e+02
  -1.0500000e+02
  -1.3800000e+02
  -1.0200000e+02
  -6.7000000e+01
  -5.4000000e+01
  -9.5000000e+01
  -4.1000000e+01
  -4.0000000e+00
  -8.0000000e+00
  -5.4000000e+01
  -6.7000000e+01
  -6.5000000e+01
  -1.0900000e+02
  -1.4100000e+02
  -1.4900000e+02
  -1.2300000e+02
  -1.6400000e+02
  -1.8100000e+02
  -1.6200000e+02
  -1.3300000e+02
  -1.1500000e+02
  -9.3000000e+01
  -4.6000000e+01
   3.5000000e+01
   5.4000000e+01
   5.7000000e+01
   7.3000000e+01
   1.2000000e+02
   1.1300000e+02
   6.7000000e+01
   1.4000000e+01
   3.5000000e+01
  -2.9000000e+01
  -6.5000000e+01
  -4.8000000e+01
  -2.7000000e+01
  -5.1000000e+01
  -7.5000000e+01
  -2.3000000e+01
   4.4000000e+01
   5.6000000e+01
   1.0000000e+01
   5.0000000e+01
   8.3000000e+01
   6.8000000e+01
   4.1000000e+01
   7.0000000e+01
   9.0000000e+01
   6.9000000e+01
  -2.0000000e+00
  -1.6000000e+01
   1.3000000e+01
  -1.7000000e+01
  -5.7000000e+01
  -5.8000000e+01
  -6.2000000e+01
  -8.3000000e+01
  -1.2000000e+02
  -9.7000000e+01
  -3.2000000e+01
  -9.0000000e+00
  -1.9000000e+01
   3.3000000e+01
   6.9000000e+01
   8.5000000e+01
   7.9000000e+01
   1.2200000e+02
   1.3300000e+02
   1.2300000e+02
   5.0000000e+01
   2.2000000e+01
   7.1000000e+01
   4.4000000e+01
   1.6000000e+01
   2.2000000e+01
   5.0000000e+00
  -3.4000000e+01
  -5.4000000e+01
  -3.5000000e+01
   3.0000000e+01
   3.7000000e+01
  -4.0000000e+00
   1.8000000e+01
   5.8000000e+01
   8.0000000e+01
   7.7000000e+01
   1.0200000e+02
   1.0700000e+02
   6.9000000e+01
  -9.0000000e+00
  -5.2000000e+01
  -4.7000000e+01
  -8.3000000e+01
  -1.0600000e+02
  -8.4000000e+01
  -4.9000000e+01
  -9.0000000e+01
  -1.2300000e+02
  -9.5000000e+01
  -4.7000000e+01
  -4.4000000e+01
  -4.8000000e+01
   3.1000000e+01
   7.6000000e+01
   7.0000000e+01
   5.4000000e+01
   6.3000000e+01
   8.6000000e+01
   4.2000000e+01
   1.0000000e+00
  -1.6000000e+01
   9.0000000e+00
  -4.1000000e+01
  -1.0900000e+02
  -1.2100000e+02
  -1.0500000e+02
  -1.4000000e+02
  -1.5300000e+02
  -1.2300000e+02
  -6.8000000e+01
  -4.6000000e+01
  -4.9000000e+01
   6.0000000e+00
   8.0000000e+01
   8.5000000e+01
   5.7000000e+01
   1.1200000e+02
   1.5200000e+02
   1.0400000e+02
   3.1000000e+01
  -2.0000000e+01
   2.6000000e+01
  -7.0000000e+00
  -5.6000000e+01
  -4.9000000e+01
  -4.0000000e+01
  -7.5000000e+01
  -9.6000000e+01
  -7.8000000e+01
  -3.0000000e+00
   1.0000000e+01
  -1.9000000e+01
   3.0000000e+01
   4.8000000e+01
   4.3000000e+01
   2.8000000e+01
   3.4000000e+01
   8.4000000e+01
   4.6000000e+01
  -2.0000000e+00
   3.0000000e+00
   4.3000000e+01
   1.7000000e+01
  -3.9000000e+01
  -7.0000000e+01
  -3.7000000e+01
  -6.6000000e+01
  -1.1100000e+02
  -9.9000000e+01
  -4.2000000e+01
  -1.3000000e+01
  -6.0000000e+01
  -3.7000000e+01
  -1.6000000e+01
  -1.4000000e+01
  -2.2000000e+01
   3.7000000e+01
   1.2100000e+02
   1.3200000e+02
   7.2000000e+01
  -1.7000000e+01
  -6.9000000e+01
  -1.4800000e+02
  -2.5400000e+02
  -2.7800000e+02
  -2.4500000e+02
  -2.3800000e+02
  -2.2900000e+02
  -1.7800000e+02
  -8.6000000e+01
   7.0000000e+00
   1.1000000e+01
   5.7000000e+01
   9.5000000e+01
   1.1300000e+02
   7.3000000e+01
   1.1400000e+02
   1.4000000e+02
   1.3000000e+02
   8.8000000e+01
   8.9000000e+01
   1.3200000e+02
   1.0600000e+02
   6.2000000e+01
   6.7000000e+01
   8.2000000e+01
   4.4000000e+01
   1.7000000e+01
   3.4000000e+01
   9.1000000e+01
   1.2700000e+02
   1.0500000e+02
   1.6400000e+02
   2.1800000e+02
   2.0600000e+02
   1.7200000e+02
   2.1700000e+02
   2.6200000e+02
   2.6000000e+02
   2.1800000e+02
   2.0100000e+02
   2.1300000e+02
   1.7900000e+02
   1.4800000e+02
   1.5900000e+02
   1.7000000e+02
   1.3200000e+02
   1.2100000e+02
   1.5000000e+02
   1.5700000e+02
   1.5400000e+02
   1.3700000e+02
   1.6100000e+02
   2.1200000e+02
   2.2000000e+02
   1.9000000e+02
   2.3500000e+02
   2.7700000e+02
   2.2300000e+02
   1.6500000e+02
   1.5500000e+02
   1.6700000e+02
   1.5200000e+02
   1.2600000e+02
   1.0900000e+02
   1.5300000e+02
   1.4700000e+02
   1.5200000e+02
   2.1900000e+02
   3.2600000e+02
   4.2500000e+02
   4.7700000e+02
   6.0600000e+02
   7.9500000e+02
   9.4500000e+02
   1.1210000e+03
   1.3640000e+03
   1.5850000e+03
   1.7840000e+03
   1.9170000e+03
   2.0620000e+03
   2.2950000e+03
   2.4570000e+03
   2.5830000e+03
   2.7460000e+03
   2.9270000e+03
   3.0370000e+03
   3.1280000e+03
   3.2710000e+03
   3.4290000e+03
   3.5600000e+03
   3.5820000e+03
   3.5950000e+03
   3.5790000e+03
   3.4860000e+03
   3.3190000e+03
   3.1440000e+03
   2.9440000e+03
   2.6760000e+03
   2.3850000e+03
   2.1010000e+03
   1.8120000e+03
   1.4960000e+03
   1.2150000e+03
   1.0390000e+03
   8.9500000e+02
   7.1700000e+02
   5.1400000e+02
   4.0000000e+02
   3.1400000e+02
   2.1200000e+02
   8.5000000e+01
   2.9000000e+01
  -2.0000000e+01
  -8.4000000e+01
  -1.2500000e+02
  -1.0700000e+02
  -9.4000000e+01
  -1.2200000e+02
  -1.5500000e+02
  -1.3300000e+02
  -7.2000000e+01
  -7.1000000e+01
  -1.2300000e+02
  -1.1900000e+02
  -1.0900000e+02
  -1.4300000e+02
  -2.0200000e+02
  -2.0200000e+02
  -1.8200000e+02
  -1.8900000e+02
  -2.1100000e+02
  -1.9200000e+02
  -1.6100000e+02
  -1.7800000e+02
  -2.1200000e+02
  -1.6300000e+02
  -1.1900000e+02
  -1.2600000e+02
  -1.6500000e+02
  -1.8900000e+02
  -1.6600000e+02
  -1.9200000e+02
  -2.3200000e+02
  -2.5900000e+02
  -2.6800000e+02
  -3.0100000e+02
  -3.3200000e+02
  -3.4500000e+02
  -2.9500000e+02
  -2.8400000e+02
  -2.9700000e+02
  -2.8400000e+02
  -2.4900000e+02
  -2.5600000e+02
  -2.8600000e+02
  -2.5500000e+02
  -2.1600000e+02
  -2.2800000e+02
  -2.6500000e+02
  -2.6200000e+02
  -2.2000000e+02
  -2.1400000e+02
  -2.5600000e+02
  -2.5000000e+02
  -2.5000000e+02
  -2.7500000e+02
  -3.2300000e+02
  -3.2700000e+02
  -2.6200000e+02
  -2.2700000e+02
  -2.2900000e+02
  -1.8800000e+02
  -1.1300000e+02
  -1.0900000e+02
  -1.2800000e+02
  -1.0200000e+02
  -8.8000000e+01
  -1.0900000e+02
  -1.5800000e+02
  -1.8600000e+02
  -1.6100000e+02
  -1.8600000e+02
  -2.2800000e+02
  -2.3100000e+02
  -2.1400000e+02
  -2.4600000e+02
  -2.6300000e+02
  -2.3400000e+02
  -1.7900000e+02
  -1.3400000e+02
  -1.6000000e+02
  -1.1900000e+02
  -7.8000000e+01
  -6.8000000e+01
  -9.8000000e+01
  -9.5000000e+01
  -6.2000000e+01
  -8.7000000e+01
  -1.3900000e+02
  -1.4900000e+02
  -1.3700000e+02
  -1.5700000e+02
  -2.0300000e+02
  -2.1900000e+02
  -2.0200000e+02
  -2.3500000e+02
  -2.6200000e+02
  -2.2600000e+02
  -1.8400000e+02
  -1.3000000e+02
  -1.3600000e+02
  -1.0900000e+02
  -7.4000000e+01
  -7.8000000e+01
  -8.6000000e+01
  -4.2000000e+01
  -1.0000000e+01
  -1.8000000e+01
  -5.7000000e+01
  -8.9000000e+01
  -8.1000000e+01
  -1.4100000e+02
  -2.0800000e+02
  -2.1500000e+02
  -1.9300000e+02
  -2.3700000e+02
  -2.6800000e+02
  -2.4000000e+02
  -1.8200000e+02
  -1.6900000e+02
  -1.8600000e+02
  -1.5100000e+02
  -8.9000000e+01
  -6.1000000e+01
  -9.2000000e+01
  -5.1000000e+01
  -2.3000000e+01
  -2.9000000e+01
  -7.8000000e+01
  -1.0400000e+02
  -8.2000000e+01
  -1.0700000e+02
  -1.2700000e+02
  -1.3100000e+02
  -9.6000000e+01
  -1.1800000e+02
  -1.4900000e+02
  -1.1600000e+02
  -4.3000000e+01
   6.0000000e+00
   1.6000000e+01
   6.0000000e+01
   1.1600000e+02
   1.0600000e+02
   8.7000000e+01
   1.2000000e+02
   1.6900000e+02
   1.5500000e+02
   1.0900000e+02
   8.1000000e+01
   8.2000000e+01
   5.6000000e+01
   3.1000000e+01
   2.8000000e+01
   3.4000000e+01
   5.0000000e+00
  -2.2000000e+01
   9.0000000e+00
   6.7000000e+01
   1.1700000e+02
   9.1000000e+01
   1.1100000e+02
   1.7700000e+02
   1.9700000e+02
   1.9000000e+02
   2.3300000e+02
   2.7700000e+02
   2.5800000e+02
   2.2200000e+02
   2.3700000e+02
   2.5900000e+02
   2.3400000e+02
   2.0400000e+02
   2.1800000e+02
   2.5300000e+02
   2.5600000e+02
   2.5700000e+02
   3.0000000e+02
   3.6600000e+02
   4.1600000e+02
   3.9700000e+02
   4.3200000e+02
   4.6300000e+02
   4.8400000e+02
   4.6400000e+02
   5.1100000e+02
   5.4300000e+02
   5.0800000e+02
   4.5900000e+02
   4.2900000e+02
   4.6000000e+02
   4.4000000e+02
   4.0400000e+02
   4.0400000e+02
   4.2100000e+02
   3.7100000e+02
   3.3000000e+02
   3.5500000e+02
   3.9300000e+02
   4.4600000e+02
   4.4400000e+02
   5.0600000e+02
   5.7700000e+02
   6.1600000e+02
   6.2000000e+02
   6.5700000e+02
   6.8000000e+02
   6.7900000e+02
   6.4000000e+02
   6.1400000e+02
   6.3400000e+02
   5.9900000e+02
   5.1100000e+02
   4.8500000e+02
   4.8900000e+02
   4.5500000e+02
   4.3200000e+02
   4.5300000e+02
   4.9500000e+02
   5.4600000e+02
   5.1100000e+02
   5.1700000e+02
   5.4000000e+02
   5.0300000e+02
   4.6300000e+02
   4.7400000e+02
   5.1700000e+02
   5.0800000e+02
   4.4700000e+02
   4.1500000e+02
   4.2800000e+02
   3.7900000e+02
   3.0800000e+02
   2.7400000e+02
   2.8800000e+02
   2.5500000e+02
   1.9900000e+02
   1.8900000e+02
   2.1000000e+02
   2.1100000e+02
   1.6100000e+02
   1.4300000e+02
   1.6700000e+02
   1.4500000e+02
   7.7000000e+01
   6.5000000e+01
   8.7000000e+01
   7.7000000e+01
   1.5000000e+01
  -3.9000000e+01
  -2.1000000e+01
  -7.1000000e+01
  -1.6100000e+02
  -2.2600000e+02
  -2.4900000e+02
  -3.3100000e+02
  -4.1000000e+02
  -4.1100000e+02
  -3.5100000e+02
  -3.0700000e+02
  -3.1000000e+02
  -2.5300000e+02
  -1.5800000e+02
  -1.1300000e+02
  -1.4000000e+02
  -1.3300000e+02
  -1.4000000e+02
  -1.9600000e+02
  -2.8900000e+02
  -3.4000000e+02
  -3.2200000e+02
  -3.6700000e+02
  -4.2000000e+02
  -4.2900000e+02
  -4.2700000e+02
  -4.4000000e+02
  -4.4800000e+02
  -4.2900000e+02
  -3.9700000e+02
  -3.9100000e+02
  -4.3100000e+02
  -4.3300000e+02
  -4.0100000e+02
  -4.0300000e+02
  -4.2900000e+02
  -3.8900000e+02
  -3.6600000e+02
  -3.7200000e+02
  -4.0300000e+02
  -4.3300000e+02
  -4.1400000e+02
  -4.1800000e+02
  -4.5500000e+02
  -4.5000000e+02
  -4.1800000e+02
  -4.2500000e+02
  -4.3900000e+02
  -4.2900000e+02
  -3.7700000e+02
  -3.2900000e+02
  -3.4500000e+02
  -3.0300000e+02
  -2.4000000e+02
  -2.1000000e+02
  -2.2300000e+02
  -2.0500000e+02
  -1.7700000e+02
  -2.0700000e+02
  -2.6700000e+02
  -3.1200000e+02
  -2.6800000e+02
  -2.6800000e+02
  -3.0700000e+02
  -3.2100000e+02
  -3.1800000e+02
  -3.3600000e+02
  -3.4100000e+02
  -3.1400000e+02
  -2.7400000e+02
  -2.4400000e+02
  -2.6700000e+02
  -2.4700000e+02
  -1.8800000e+02
  -1.8800000e+02
  -2.2700000e+02
  -2.0700000e+02
  -1.9300000e+02
  -2.1300000e+02
  -2.6100000e+02
  -3.0200000e+02
  -2.8400000e+02
  -2.8800000e+02
  -3.2300000e+02
  -3.2300000e+02
  -3.1400000e+02
  -3.4100000e+02
  -3.8800000e+02
  -3.8200000e+02
  -3.2500000e+02
  -2.9000000e+02
  -3.1800000e+02
  -2.8500000e+02
  -2.2500000e+02
  -1.7800000e+02
  -1.8400000e+02
  -1.5900000e+02
  -1.3200000e+02
  -1.4400000e+02
  -1.9400000e+02
  -2.2800000e+02
  -2.1400000e+02
  -2.6200000e+02
  -3.2500000e+02
  -3.3400000e+02
  -3.3600000e+02
  -3.5700000e+02
  -3.6100000e+02
  -3.0900000e+02
  -2.3700000e+02
  -2.0300000e+02
  -2.2300000e+02
  -1.9600000e+02
  -1.5100000e+02
  -1.4900000e+02
  -1.7600000e+02
  -1.7000000e+02
  -1.4200000e+02
  -1.3700000e+02
  -1.8300000e+02
  -2.1100000e+02
  -2.0500000e+02
  -2.2400000e+02
  -2.7800000e+02
  -2.8000000e+02
  -2.5800000e+02
  -2.7000000e+02
  -3.1000000e+02
  -2.8500000e+02
  -2.4000000e+02
  -2.1000000e+02
  -2.2400000e+02
  -2.0800000e+02
  -1.6900000e+02
  -1.5800000e+02
  -1.7000000e+02
  -1.3800000e+02
  -8.0000000e+01
  -7.4000000e+01
  -1.1700000e+02
  -1.4700000e+02
  -1.3800000e+02
  -1.4200000e+02
  -2.0700000e+02
  -2.2600000e+02
  -2.1800000e+02
  -2.2500000e+02
  -2.3800000e+02
  -2.1200000e+02
  -1.4800000e+02
  -1.0600000e+02
  -1.3400000e+02
  -1.1600000e+02
  -4.2000000e+01
   4.0000000e+00
   1.2000000e+01
   2.5000000e+01
   4.7000000e+01
   2.7000000e+01
  -2.9000000e+01
  -6.0000000e+01
  -3.7000000e+01
  -5.4000000e+01
  -1.0700000e+02
  -1.3700000e+02
  -1.1100000e+02
  -1.3600000e+02
  -1.6600000e+02
  -1.4200000e+02
  -1.0400000e+02
  -7.0000000e+01
  -1.1400000e+02
  -9.0000000e+01
  -2.1000000e+01
  -1.0000000e+01
  -3.3000000e+01
  -2.0000000e+01
   1.5000000e+01
  -6.0000000e+00
  -2.9000000e+01
  -6.2000000e+01
  -5.6000000e+01
  -8.2000000e+01
  -1.2300000e+02
  -1.2300000e+02
  -8.7000000e+01
  -9.6000000e+01
  -1.2200000e+02
  -9.8000000e+01
  -3.8000000e+01
   1.5000000e+01
   9.0000000e+00
   3.4000000e+01
   8.5000000e+01
   1.0200000e+02
   9.2000000e+01
   1.1100000e+02
   1.4300000e+02
   1.2100000e+02
   7.6000000e+01
   3.4000000e+01
   4.3000000e+01
   2.5000000e+01
  -4.2000000e+01
  -5.7000000e+01
  -4.0000000e+01
  -6.2000000e+01
  -9.8000000e+01
  -9.3000000e+01
  -6.1000000e+01
  -2.5000000e+01
  -3.0000000e+01
  -1.0000000e+01
   4.3000000e+01
   6.1000000e+01
   5.3000000e+01
   8.9000000e+01
   1.2800000e+02
   1.0400000e+02
   5.9000000e+01
   3.7000000e+01
   4.5000000e+01
   2.9000000e+01
  -4.0000000e+01
  -3.9000000e+01
  -4.0000000e+00
  -2.0000000e+01
  -5.9000000e+01
  -6.1000000e+01
  -6.0000000e+00
   4.9000000e+01
   4.9000000e+01
   7.3000000e+01
   1.3100000e+02
   1.5200000e+02
   1.0700000e+02
   1.0100000e+02
   1.4600000e+02
   1.5700000e+02
   8.9000000e+01
   7.0000000e+01
   6.7000000e+01
   3.4000000e+01
  -1.7000000e+01
  -4.8000000e+01
  -4.4000000e+01
  -7.7000000e+01
  -1.0400000e+02
  -1.0500000e+02
  -6.0000000e+01
  -7.0000000e+00
  -3.9000000e+01
  -4.2000000e+01
  -6.0000000e+00
   6.0000000e+00
   8.0000000e+00
   4.7000000e+01
   1.0300000e+02
   5.9000000e+01
   9.0000000e+00
  -6.0000000e+00
   2.0000000e+00
  -8.0000000e+00
  -6.4000000e+01
  -7.5000000e+01
  -4.0000000e+01
  -5.9000000e+01
  -1.1200000e+02
  -1.0300000e+02
  -5.2000000e+01
  -4.0000000e+00
  -1.9000000e+01
   1.0000000e+00
   6.3000000e+01
   8.1000000e+01
   6.3000000e+01
   6.6000000e+01
   7.2000000e+01
   5.9000000e+01
   9.0000000e+00
  -1.7000000e+01
   2.0000000e+01
   6.0000000e+00
  -6.1000000e+01
  -6.9000000e+01
  -5.6000000e+01
  -8.6000000e+01
  -1.2300000e+02
  -1.0300000e+02
  -5.6000000e+01
  -9.0000000e+00
  -1.2000000e+01
   1.5000000e+01
   6.8000000e+01
   6.8000000e+01
   2.6000000e+01
   3.6000000e+01
   7.6000000e+01
   6.4000000e+01
   2.9000000e+01
  -3.7000000e+01
  -1.1000000e+01
  -1.0000000e+01
  -4.5000000e+01
  -4.9000000e+01
  -1.9000000e+01
  -5.6000000e+01
  -9.2000000e+01
  -7.8000000e+01
  -2.1000000e+01
   2.7000000e+01
   3.5000000e+01
   4.4000000e+01
   8.5000000e+01
   1.1700000e+02
   9.3000000e+01
   1.1100000e+02
   1.4400000e+02
   1.3800000e+02
   6.0000000e+01
   2.3000000e+01
   4.4000000e+01
   2.5000000e+01
  -5.0000000e+00
  -5.0000000e+00
  -2.0000000e+00
  -4.8000000e+01
  -8.8000000e+01
  -9.5000000e+01
  -3.1000000e+01
  -1.5000000e+01
  -1.3000000e+01
   9.0000000e+00
   6.6000000e+01
   1.1800000e+02
   1.1600000e+02
   1.3000000e+02
   1.5100000e+02
   1.6700000e+02
   1.4600000e+02
   1.4000000e+02
   1.5900000e+02
   1.9600000e+02
   2.4400000e+02
   3.4800000e+02
   4.9800000e+02
   6.1800000e+02
   7.3200000e+02
   9.2600000e+02
   1.1970000e+03
   1.4350000e+03
   1.6200000e+03
   1.8180000e+03
   2.0650000e+03
   2.2730000e+03
   2.4390000e+03
   2.6390000e+03
   2.8420000e+03
   2.9780000e+03
   3.0600000e+03
   3.1780000e+03
   3.3420000e+03
   3.4820000e+03
   3.5310000e+03
   3.5900000e+03
   3.5970000e+03
   3.5440000e+03
   3.3720000e+03
   3.1490000e+03
   2.9440000e+03
   2.7190000e+03
   2.4750000e+03
   2.2690000e+03
   2.0960000e+03
   1.8430000e+03
   1.6100000e+03
   1.4280000e+03
   1.3020000e+03
   1.1230000e+03
   9.3200000e+02
   7.4900000e+02
   6.2700000e+02
   4.9000000e+02
   3.1100000e+02
   1.5100000e+02
   8.2000000e+01
   1.0000000e+01
  -6.2000000e+01
  -4.6000000e+01
  -4.0000000e+00
   3.7000000e+01
   8.0000000e+01
   1.2700000e+02
   2.2500000e+02
   2.6000000e+02
   2.3200000e+02
   2.2100000e+02
   2.3400000e+02
   2.2200000e+02
   1.0900000e+02
   1.0000000e+00
  -5.1000000e+01
  -1.0600000e+02
  -2.0500000e+02
  -2.4000000e+02
  -2.5400000e+02
  -3.0100000e+02
  -3.2600000e+02
  -3.2800000e+02
  -2.7900000e+02
  -2.2200000e+02
  -2.2800000e+02
  -2.0400000e+02
  -1.1900000e+02
  -6.4000000e+01
  -5.5000000e+01
  -4.3000000e+01
  -3.0000000e+00
  -1.0000000e+00
  -5.0000000e+01
  -9.0000000e+01
  -6.2000000e+01
  -7.4000000e+01
  -1.3100000e+02
  -1.3200000e+02
  -1.0600000e+02
  -1.0300000e+02
  -1.5800000e+02
  -1.3600000e+02
  -1.0700000e+02
  -6.2000000e+01
  -9.1000000e+01
  -7.3000000e+01
  -2.3000000e+01
   4.0000000e+00
  -4.0000000e+00
   1.1000000e+01
   5.6000000e+01
   3.7000000e+01
  -2.8000000e+01
  -5.1000000e+01
  -5.0000000e+01
  -6.9000000e+01
  -1.2600000e+02
  -1.4600000e+02
  -1.5100000e+02
  -1.6400000e+02
  -2.0500000e+02
  -1.7000000e+02
  -1.1800000e+02
  -8.3000000e+01
  -9.6000000e+01
  -6.6000000e+01
  -3.0000000e+00
   4.0000000e+00
  -3.0000000e+00
   5.4000000e+01
   1.0600000e+02
   1.0400000e+02
   5.4000000e+01
   1.0000000e+00
   2.0000000e+00
  -6.0000000e+00
  -7.6000000e+01
  -9.5000000e+01
  -8.4000000e+01
  -8.8000000e+01
  -1.0900000e+02
  -8.1000000e+01
  -4.0000000e+01
  -6.0000000e+00
  -2.7000000e+01
  -5.0000000e+00
   2.9000000e+01
   3.9000000e+01
   7.0000000e+00
   1.5000000e+01
   3.5000000e+01
   2.2000000e+01
  -3.6000000e+01
  -8.7000000e+01
  -8.1000000e+01
  -8.8000000e+01
  -1.1900000e+02
  -1.2000000e+02
  -1.0600000e+02
  -1.2800000e+02
  -1.6500000e+02
  -1.4700000e+02
  -8.9000000e+01
  -3.9000000e+01
  -7.5000000e+01
  -8.6000000e+01
  -3.6000000e+01
  -1.2000000e+01
  -3.6000000e+01
  -3.0000000e+01
  -1.5000000e+01
  -1.3000000e+01
  -4.7000000e+01
  -7.9000000e+01
  -7.0000000e+01
  -1.1200000e+02
  -1.8900000e+02
  -2.2500000e+02
  -2.0800000e+02
  -2.1600000e+02
  -2.3600000e+02
  -2.3000000e+02
  -1.7800000e+02
  -1.4800000e+02
  -1.5500000e+02
  -1.2800000e+02
  -7.5000000e+01
  -2.7000000e+01
  -4.0000000e+01
  -2.0000000e+01
   2.7000000e+01
   1.3000000e+01
  -3.1000000e+01
  -7.0000000e+01
  -3.0000000e+01
  -4.2000000e+01
  -9.0000000e+01
  -1.0500000e+02
  -6.4000000e+01
  -7.7000000e+01
  -1.0000000e+02
  -7.1000000e+01
  -5.0000000e+00
   4.5000000e+01
   4.2000000e+01
   7.2000000e+01
   1.5700000e+02
   1.6800000e+02
   1.6000000e+02
   1.8100000e+02
   2.2200000e+02
   2.1900000e+02
   2.0600000e+02
   1.6900000e+02
   1.9000000e+02
   1.8500000e+02
   1.6100000e+02
   1.5000000e+02
   1.6400000e+02
   1.5200000e+02
   1.2100000e+02
   1.4000000e+02
   2.1800000e+02
   2.7900000e+02
   2.6700000e+02
   2.8000000e+02
   3.4300000e+02
   3.7200000e+02
   3.5800000e+02
   3.7800000e+02
   4.4300000e+02
   4.5100000e+02
   4.2000000e+02
   4.1700000e+02
   4.2600000e+02
   4.1600000e+02
   3.5900000e+02
   3.2800000e+02
   3.6600000e+02
   3.4700000e+02
   3.0700000e+02
   3.2300000e+02
   3.8000000e+02
   4.4900000e+02
   4.3900000e+02
   4.7200000e+02
   5.4000000e+02
   5.6200000e+02
   5.5200000e+02
   5.8100000e+02
   6.2400000e+02
   6.1400000e+02
   5.8100000e+02
   5.5600000e+02
   5.8300000e+02
   5.9300000e+02
   5.3400000e+02
   5.2200000e+02
   5.6000000e+02
   5.5200000e+02
   5.2400000e+02
   5.3100000e+02
   5.7400000e+02
   6.2300000e+02
   6.3100000e+02
   6.6900000e+02
   7.1600000e+02
   7.2900000e+02
   7.0500000e+02
   6.9700000e+02
   7.2200000e+02
   7.2200000e+02
   6.7000000e+02
   6.3900000e+02
   6.5600000e+02
   6.4800000e+02
   6.0500000e+02
   5.6900000e+02
   5.6200000e+02
   5.3000000e+02
   4.8200000e+02
   4.7900000e+02
   5.1600000e+02
   5.5800000e+02
   5.1900000e+02
   5.0900000e+02
   5.5400000e+02
   5.5300000e+02
   5.2000000e+02
   5.1600000e+02
   5.2300000e+02
   4.9200000e+02
   4.0900000e+02
   3.1400000e+02
   2.9000000e+02
   2.7200000e+02
   2.0000000e+02
   1.7000000e+02
   1.6900000e+02
   1.4600000e+02
   8.2000000e+01
   7.1000000e+01
   9.9000000e+01
   1.2500000e+02
   1.0700000e+02
   1.2200000e+02
   1.7600000e+02
   1.9400000e+02
   1.8300000e+02
   1.7500000e+02
   2.0400000e+02
   1.7800000e+02
   1.1000000e+02
   4.3000000e+01
   1.7000000e+01
  -1.9000000e+01
  -6.8000000e+01
  -8.1000000e+01
  -6.3000000e+01
  -8.8000000e+01
  -1.6900000e+02
  -1.9100000e+02
  -1.4000000e+02
  -8.4000000e+01
  -9.1000000e+01
  -1.1000000e+02
  -8.3000000e+01
  -7.9000000e+01
  -1.1600000e+02
  -1.1900000e+02
  -8.3000000e+01
  -8.6000000e+01
  -1.1800000e+02
  -1.5900000e+02
  -1.5900000e+02
  -1.6600000e+02
  -2.2100000e+02
  -2.4100000e+02
  -2.2200000e+02
  -2.3500000e+02
  -3.1200000e+02
  -3.0600000e+02
  -2.5300000e+02
  -2.1200000e+02
  -2.0400000e+02
  -1.8400000e+02
  -1.4700000e+02
  -1.5300000e+02
  -1.7100000e+02
  -1.6500000e+02
  -1.3200000e+02
  -1.4200000e+02
  -1.9300000e+02
  -2.3700000e+02
  -2.2000000e+02
  -2.2500000e+02
  -2.9200000e+02
  -3.3000000e+02
  -3.3200000e+02
  -3.4500000e+02
  -3.6100000e+02
  -3.3400000e+02
  -2.5900000e+02
  -2.2300000e+02
  -2.4800000e+02
  -2.6000000e+02
  -2.0700000e+02
  -1.6500000e+02
  -1.7100000e+02
  -1.4900000e+02
  -1.0300000e+02
  -9.3000000e+01
  -1.3100000e+02
  -1.8200000e+02
  -1.9700000e+02
  -2.1300000e+02
  -2.4400000e+02
  -2.6400000e+02
  -2.4200000e+02
  -2.5300000e+02
  -3.0200000e+02
  -3.0200000e+02
  -2.4800000e+02
  -1.9600000e+02
  -1.9900000e+02
  -1.7700000e+02
  -1.3100000e+02
  -1.3100000e+02
  -1.7100000e+02
  -1.7700000e+02
  -1.4600000e+02
  -1.4100000e+02
  -1.9600000e+02
  -2.4800000e+02
  -2.5600000e+02
  -2.8500000e+02
  -3.4300000e+02
  -3.2600000e+02
  -2.8000000e+02
  -2.8100000e+02
  -3.2400000e+02
  -3.1200000e+02
  -2.8900000e+02
  -2.7300000e+02
  -3.3300000e+02
  -3.7500000e+02
  -3.5500000e+02
  -3.5600000e+02
  -3.7900000e+02
  -3.6300000e+02
  -3.1600000e+02
  -3.0300000e+02
  -3.1400000e+02
  -2.9800000e+02
  -2.5700000e+02
  -2.6100000e+02
  -3.2500000e+02
  -3.6600000e+02
  -3.7400000e+02
  -4.0800000e+02
  -4.7900000e+02
  -4.7900000e+02
  -4.2900000e+02
  -3.6500000e+02
  -3.7400000e+02
  -3.3900000e+02
  -2.7100000e+02
  -2.2800000e+02
  -2.1600000e+02
  -2.0300000e+02
  -1.7900000e+02
  -1.9800000e+02
  -2.6500000e+02
  -3.4500000e+02
  -3.3600000e+02
  -3.7400000e+02
  -4.1800000e+02
  -4.5100000e+02
  -4.1100000e+02
  -4.2800000e+02
  -4.5300000e+02
  -4.1600000e+02
  -3.3600000e+02
  -3.0100000e+02
  -2.9800000e+02
  -2.6600000e+02
  -2.0500000e+02
  -1.7600000e+02
  -2.0500000e+02
  -1.7100000e+02
  -1.2900000e+02
  -1.3800000e+02
  -1.8900000e+02
  -2.5500000e+02
  -2.5400000e+02
  -2.5100000e+02
  -3.0900000e+02
  -3.3600000e+02
  -3.1500000e+02
  -3.0700000e+02
  -3.5200000e+02
  -3.3900000e+02
  -2.7800000e+02
  -2.2600000e+02
  -2.3000000e+02
  -2.2300000e+02
  -1.8100000e+02
  -1.5100000e+02
  -1.3200000e+02
  -1.2900000e+02
  -9.0000000e+01
  -9.2000000e+01
  -1.5700000e+02
  -1.7400000e+02
  -1.6400000e+02
  -2.0300000e+02
  -2.5600000e+02
  -2.8700000e+02
  -2.6900000e+02
  -2.7000000e+02
  -3.2400000e+02
  -3.1000000e+02
  -2.6900000e+02
  -2.3300000e+02
  -2.3700000e+02
  -2.4900000e+02
  -1.7800000e+02
  -1.5700000e+02
  -1.8000000e+02
  -1.7400000e+02
  -1.4000000e+02
  -1.4200000e+02
  -1.9800000e+02
  -2.3300000e+02
  -2.1600000e+02
  -2.3400000e+02
  -2.7600000e+02
  -3.0300000e+02
  -3.0600000e+02
  -3.2400000e+02
  -3.6500000e+02
  -3.6500000e+02
  -2.9300000e+02
  -2.5100000e+02
  -2.5400000e+02
  -2.4100000e+02
  -1.6200000e+02
  -1.4200000e+02
  -1.7000000e+02
  -1.4900000e+02
  -1.0900000e+02
  -1.2900000e+02
  -1.9600000e+02
  -2.0200000e+02
  -2.0200000e+02
  -2.0200000e+02
  -2.6900000e+02
  -2.8000000e+02
  -2.4700000e+02
  -2.4600000e+02
  -2.7000000e+02
  -2.3800000e+02
  -2.0500000e+02
  -1.5200000e+02
  -1.4100000e+02
  -1.3100000e+02
  -6.1000000e+01
  -2.3000000e+01
  -2.3000000e+01
  -5.0000000e+00
   4.5000000e+01
   2.2000000e+01
  -1.2000000e+01
  -6.3000000e+01
  -5.8000000e+01
  -6.5000000e+01
  -1.1800000e+02
  -1.3600000e+02
  -1.1100000e+02
  -1.2000000e+02
  -1.5000000e+02
  -1.4200000e+02
  -8.7000000e+01
  -2.2000000e+01
  -2.4000000e+01
  -2.0000000e+00
   9.0000000e+01
   1.1000000e+02
   1.0600000e+02
   9.7000000e+01
   1.3300000e+02
   1.2900000e+02
   8.3000000e+01
   4.5000000e+01
   7.4000000e+01
   7.9000000e+01
   4.6000000e+01
   3.5000000e+01
   2.7000000e+01
   1.3000000e+01
  -2.9000000e+01
  -1.7000000e+01
   1.4000000e+01
   3.4000000e+01
   2.1000000e+01
   3.2000000e+01
   1.0000000e+02
   1.1300000e+02
   8.2000000e+01
   6.8000000e+01
   8.4000000e+01
   7.7000000e+01
   2.7000000e+01
   1.8000000e+01
   4.1000000e+01
   3.4000000e+01
  -3.2000000e+01
  -3.8000000e+01
  -2.1000000e+01
  -2.8000000e+01
  -9.8000000e+01
  -1.1200000e+02
  -3.8000000e+01
   2.5000000e+01
  -2.0000000e+00
  -3.0000000e+00
   7.3000000e+01
   1.0000000e+02
   6.1000000e+01
   7.1000000e+01
   1.1200000e+02
   1.3300000e+02
   7.6000000e+01
   2.8000000e+01
   7.4000000e+01
   8.1000000e+01
   2.3000000e+01
   5.0000000e+00
   2.2000000e+01
   3.9000000e+01
  -1.6000000e+01
  -1.3000000e+01
   3.0000000e+00
   7.8000000e+01
   7.1000000e+01
   1.1000000e+02
   1.9400000e+02
   2.3800000e+02
   2.3000000e+02
   2.3900000e+02
   2.9300000e+02
   2.8800000e+02
   2.4000000e+02
   1.8600000e+02
   2.0800000e+02
   2.1900000e+02
   1.6800000e+02
   1.4100000e+02
   1.6000000e+02
   1.5000000e+02
   1.0700000e+02
   1.0700000e+02
   1.4900000e+02
   1.9500000e+02
   1.8500000e+02
   1.9900000e+02
   2.6400000e+02
   2.6700000e+02
   2.6000000e+02
   2.6200000e+02
   3.0200000e+02
   3.0500000e+02
   2.7900000e+02
   2.4200000e+02
   2.5700000e+02
   2.4300000e+02
   1.9100000e+02
   1.8800000e+02
   2.1600000e+02
   1.9900000e+02
   1.3600000e+02
   1.4900000e+02
   1.9600000e+02
   2.2500000e+02
   2.1400000e+02
   2.0800000e+02
   2.7100000e+02
   3.1400000e+02
   2.8200000e+02
   2.7200000e+02
   3.3400000e+02
   3.1400000e+02
   2.9900000e+02
   2.8500000e+02
   3.4100000e+02
   3.9400000e+02
   4.3500000e+02
   5.3000000e+02
   6.6900000e+02
   8.0800000e+02
   9.2800000e+02
   1.1130000e+03
   1.3460000e+03
   1.6160000e+03
   1.7970000e+03
   1.9760000e+03
   2.2260000e+03
   2.4400000e+03
   2.6060000e+03
   2.7800000e+03
   2.9910000e+03
   3.1250000e+03
   3.1910000e+03
   3.2660000e+03
   3.3430000e+03
   3.4260000e+03
   3.4290000e+03
   3.4450000e+03
   3.4460000e+03
   3.3460000e+03
   3.1230000e+03
   2.8940000e+03
   2.6810000e+03
   2.5030000e+03
   2.2850000e+03
   2.0340000e+03
   1.7980000e+03
   1.5230000e+03
   1.2480000e+03
   1.0430000e+03
   9.1700000e+02
   7.6000000e+02
   6.0000000e+02
   4.2900000e+02
   3.1100000e+02
   1.9600000e+02
   3.7000000e+01
  -6.3000000e+01
  -1.1900000e+02
  -1.8600000e+02
  -2.4400000e+02
  -2.2900000e+02
  -1.7600000e+02
  -1.2300000e+02
  -1.0100000e+02
  -8.9000000e+01
  -1.3000000e+01
   4.4000000e+01
   5.8000000e+01
   7.0000000e+01
   8.3000000e+01
   5.7000000e+01
  -3.1000000e+01
  -9.7000000e+01
  -1.1500000e+02
  -1.5900000e+02
  -2.6700000e+02
  -3.3400000e+02
  -3.5600000e+02
  -3.9200000e+02
  -4.5500000e+02
  -4.3500000e+02
  -3.8200000e+02
  -3.0600000e+02
  -3.0000000e+02
  -2.6300000e+02
  -2.0000000e+02
  -1.5000000e+02
  -1.6000000e+02
  -1.5000000e+02
  -1.1200000e+02
  -1.2400000e+02
  -1.7400000e+02
  -2.2000000e+02
  -2.1100000e+02
  -2.2600000e+02
  -2.9300000e+02
  -3.1300000e+02
  -3.0400000e+02
  -3.2600000e+02
  -3.8400000e+02
  -3.8700000e+02
  -3.3600000e+02
  -2.6500000e+02
  -2.7200000e+02
  -2.3400000e+02
  -1.6400000e+02
  -1.5300000e+02
  -1.9500000e+02
  -1.9900000e+02
  -1.4800000e+02
  -1.4600000e+02
  -1.9900000e+02
  -2.3200000e+02
  -2.0600000e+02
  -2.3700000e+02
  -3.0700000e+02
  -3.3100000e+02
  -3.0700000e+02
  -3.2800000e+02
  -3.5900000e+02
  -3.2000000e+02
  -2.4800000e+02
  -1.7700000e+02
  -1.5000000e+02
  -1.4400000e+02
  -1.2400000e+02
  -1.5800000e+02
  -2.2100000e+02
  -2.6700000e+02
  -2.5800000e+02
  -2.4900000e+02
  -2.5800000e+02
  -2.8900000e+02
  -2.8200000e+02
  -2.6800000e+02
  -2.6600000e+02
  -2.8400000e+02
  -2.8700000e+02
  -3.1200000e+02
  -3.7800000e+02
  -3.9800000e+02
  -3.7100000e+02
  -3.3300000e+02
  -3.4700000e+02
  -3.3200000e+02
  -2.6900000e+02
  -2.4400000e+02
  -2.3500000e+02
  -2.1500000e+02
  -1.4000000e+02
  -1.2900000e+02
  -1.8800000e+02
  -2.6100000e+02
  -3.0200000e+02
  -3.3600000e+02
  -4.0500000e+02
  -4.4600000e+02
  -4.3900000e+02
  -4.6200000e+02
  -5.2000000e+02
  -4.9200000e+02
  -4.2500000e+02
  -3.7000000e+02
  -3.5800000e+02
  -3.4500000e+02
  -2.8100000e+02
  -2.3800000e+02
  -2.3600000e+02
  -2.1700000e+02
  -1.5800000e+02
  -1.3100000e+02
  -1.5400000e+02
  -1.9000000e+02
  -1.8200000e+02
  -1.5900000e+02
  -2.0400000e+02
  -2.0300000e+02
  -1.8700000e+02
  -1.8800000e+02
  -2.4100000e+02
  -2.4900000e+02
  -1.8500000e+02
  -1.1500000e+02
  -1.0400000e+02
  -6.7000000e+01
   2.0000000e+00
   2.4000000e+01
   1.8000000e+01
   3.0000000e+01
   8.2000000e+01
   1.0200000e+02
   7.7000000e+01
   4.7000000e+01
   6.5000000e+01
   4.4000000e+01
   5.0000000e+00
  -9.0000000e+00
   1.6000000e+01
   2.0000000e+01
   5.0000000e+00
   3.2000000e+01
   8.6000000e+01
   1.5900000e+02
   1.3900000e+02
   1.3500000e+02
   2.0200000e+02
   2.4100000e+02
   2.3700000e+02
   2.5300000e+02
   2.9600000e+02
   3.1300000e+02
   2.7800000e+02
   2.1900000e+02
   2.2100000e+02
   2.3500000e+02
   1.7800000e+02
   1.5200000e+02
   2.0100000e+02
   2.1000000e+02
   1.7900000e+02
   2.0500000e+02
   2.8000000e+02
   3.5000000e+02
   3.5200000e+02
   3.6400000e+02
   4.2700000e+02
   4.6500000e+02
   4.5500000e+02
   4.8000000e+02
   5.3700000e+02
   5.7900000e+02
   5.2200000e+02
   4.6200000e+02
   4.8500000e+02
   4.9700000e+02
   4.3700000e+02
   4.0600000e+02
   4.5500000e+02
   4.6500000e+02
   4.3300000e+02
   4.4500000e+02
   4.9200000e+02
   5.5100000e+02
   5.6600000e+02
   5.8400000e+02
   6.4600000e+02
   6.9500000e+02
   6.5300000e+02
   6.3900000e+02
   7.1200000e+02
   7.0900000e+02
   6.7100000e+02
   6.4300000e+02
   6.5200000e+02
   6.6800000e+02
   6.0600000e+02
   5.9000000e+02
   5.9600000e+02
   5.8800000e+02
   5.3700000e+02
   5.4000000e+02
   5.8300000e+02
   6.1100000e+02
   5.8200000e+02
   5.6300000e+02
   6.1500000e+02
   6.3300000e+02
   6.1000000e+02
   6.0800000e+02
   6.3600000e+02
   6.3700000e+02
   6.0500000e+02
   5.6700000e+02
   5.6800000e+02
   5.5700000e+02
   4.9300000e+02
   4.3300000e+02
   4.1700000e+02
   3.8700000e+02
   3.5300000e+02
   3.5100000e+02
   4.0500000e+02
   4.2900000e+02
   4.0600000e+02
   3.8500000e+02
   4.3200000e+02
   4.3200000e+02
   4.0200000e+02
   3.9600000e+02
   4.2900000e+02
   4.0800000e+02
   3.1800000e+02
   2.5700000e+02
   2.1300000e+02
   1.8800000e+02
   1.1600000e+02
   4.0000000e+01
   2.8000000e+01
   1.0000000e+00
  -4.9000000e+01
  -6.6000000e+01
  -6.2000000e+01
  -4.6000000e+01
  -6.0000000e+01
  -1.0300000e+02
  -7.2000000e+01
  -5.8000000e+01
  -7.6000000e+01
  -6.0000000e+01
  -2.8000000e+01
  -3.9000000e+01
  -9.4000000e+01
  -1.5200000e+02
  -1.5100000e+02
  -1.5600000e+02
  -2.1600000e+02
  -2.4200000e+02
  -2.3000000e+02
  -2.4400000e+02
  -2.9200000e+02
  -2.9600000e+02
  -2.5800000e+02
  -2.2300000e+02
  -2.3300000e+02
  -2.4400000e+02
  -1.9400000e+02
  -1.3500000e+02
  -1.3500000e+02
  -1.1100000e+02
  -6.3000000e+01
  -5.0000000e+01
  -8.8000000e+01
  -1.3300000e+02
  -1.5300000e+02
  -1.7100000e+02
  -2.1200000e+02
  -2.2200000e+02
  -2.0300000e+02
  -2.1600000e+02
  -2.5400000e+02
  -2.5000000e+02
  -1.9900000e+02
  -1.3500000e+02
  -1.3700000e+02
  -1.4300000e+02
  -9.8000000e+01
  -9.1000000e+01
  -1.1700000e+02
  -1.2200000e+02
  -1.0000000e+02
  -1.0500000e+02
  -1.5800000e+02
  -2.0600000e+02
  -2.1600000e+02
  -2.2200000e+02
  -2.8500000e+02
  -3.1000000e+02
  -2.8900000e+02
  -2.8900000e+02
  -3.0800000e+02
  -2.9100000e+02
  -2.5500000e+02
  -2.2500000e+02
  -2.2700000e+02
  -2.3900000e+02
  -1.8900000e+02
  -1.7300000e+02
  -2.0400000e+02
  -2.1900000e+02
  -1.9900000e+02
  -1.7600000e+02
  -2.1900000e+02
  -2.5600000e+02
  -2.4400000e+02
  -2.2600000e+02
  -2.7500000e+02
  -3.2400000e+02
  -3.2400000e+02
  -3.4400000e+02
  -4.0500000e+02
  -4.3100000e+02
  -3.7500000e+02
  -3.2400000e+02
  -3.0700000e+02
  -3.0500000e+02
  -2.5700000e+02
  -2.3400000e+02
  -2.2000000e+02
  -2.1100000e+02
  -1.6000000e+02
  -1.7900000e+02
  -2.3500000e+02
  -3.0100000e+02
  -3.1600000e+02
  -3.2700000e+02
  -3.6400000e+02
  -4.0700000e+02
  -4.0300000e+02
  -3.9400000e+02
  -4.1900000e+02
  -4.3300000e+02
  -4.0900000e+02
  -3.6500000e+02
  -3.6900000e+02
  -3.5200000e+02
  -2.9700000e+02
  -2.9700000e+02
  -3.2900000e+02
  -3.4800000e+02
  -2.9800000e+02
  -3.0700000e+02
  -3.3300000e+02
  -3.6300000e+02
  -3.6700000e+02
  -3.6400000e+02
  -4.1300000e+02
  -4.4800000e+02
  -4.4400000e+02
  -4.2200000e+02
  -4.6600000e+02
  -4.7100000e+02
  -4.2600000e+02
  -3.7600000e+02
  -3.7500000e+02
  -3.7700000e+02
  -3.2200000e+02
  -3.0100000e+02
  -3.1800000e+02
  -3.1100000e+02
  -2.6100000e+02
  -2.3600000e+02
  -2.7700000e+02
  -3.2900000e+02
  -3.2600000e+02
  -3.1200000e+02
  -3.3700000e+02
  -3.7600000e+02
  -3.5100000e+02
  -3.4700000e+02
  -3.8000000e+02
  -3.6800000e+02
  -3.1500000e+02
  -2.5800000e+02
  -2.6300000e+02
  -2.4900000e+02
  -1.9200000e+02
  -1.5000000e+02
  -1.4700000e+02
  -1.2600000e+02
  -7.8000000e+01
  -8.4000000e+01
  -1.2300000e+02
  -1.5800000e+02
  -1.6500000e+02
  -1.5700000e+02
  -2.1800000e+02
  -2.3200000e+02
  -2.2300000e+02
  -2.1900000e+02
  -2.5400000e+02
  -2.8300000e+02
  -2.2800000e+02
  -1.6200000e+02
  -1.4000000e+02
  -1.4500000e+02
  -9.0000000e+01
  -4.9000000e+01
  -6.4000000e+01
  -6.3000000e+01
  -1.1000000e+01
  -2.7000000e+01
  -8.3000000e+01
  -1.4700000e+02
  -1.5000000e+02
  -1.5000000e+02
  -1.8900000e+02
  -1.9300000e+02
  -1.9600000e+02
  -1.9500000e+02
  -2.3200000e+02
  -2.3700000e+02
  -2.0100000e+02
  -1.4900000e+02
  -1.1700000e+02
  -1.0900000e+02
  -2.9000000e+01
   2.6000000e+01
  -6.0000000e+00
  -4.1000000e+01
  -5.4000000e+01
  -8.0000000e+01
  -1.3900000e+02
  -1.8000000e+02
  -1.9600000e+02
  -1.7000000e+02
  -2.0300000e+02
  -2.0500000e+02
  -1.4500000e+02
  -1.0900000e+02
  -1.4700000e+02
  -1.8100000e+02
  -1.7500000e+02
  -1.4200000e+02
  -1.5200000e+02
  -1.7800000e+02
  -1.2400000e+02
  -8.7000000e+01
  -9.0000000e+01
  -8.0000000e+01
  -4.5000000e+01
  -5.2000000e+01
  -1.0100000e+02
  -1.2400000e+02
  -1.0900000e+02
  -9.9000000e+01
  -1.7300000e+02
  -2.3600000e+02
  -2.3900000e+02
  -2.6000000e+02
  -3.0800000e+02
  -3.1400000e+02
  -2.9200000e+02
  -2.5200000e+02
  -2.4300000e+02
  -2.2500000e+02
  -1.6200000e+02
  -1.2100000e+02
  -1.2700000e+02
  -9.7000000e+01
  -3.8000000e+01
  -5.0000000e+00
  -1.0000000e+01
  -5.4000000e+01
  -6.0000000e+01
  -6.9000000e+01
  -1.3300000e+02
  -1.7100000e+02
  -1.3400000e+02
  -1.4700000e+02
  -1.6600000e+02
  -1.5700000e+02
  -1.4500000e+02
  -7.8000000e+01
  -7.9000000e+01
  -9.0000000e+01
  -1.6000000e+01
   3.2000000e+01
   2.6000000e+01
   6.0000000e+00
   6.3000000e+01
   7.6000000e+01
   4.1000000e+01
   1.3000000e+01
   4.0000000e+00
   3.0000000e+01
  -2.6000000e+01
  -5.3000000e+01
  -1.5000000e+01
  -7.0000000e+00
  -5.1000000e+01
  -6.1000000e+01
  -1.6000000e+01
   4.5000000e+01
   4.1000000e+01
   3.0000000e+01
   7.1000000e+01
   1.0700000e+02
   9.8000000e+01
   7.7000000e+01
   1.1400000e+02
   1.2100000e+02
   6.4000000e+01
   1.9000000e+01
   9.0000000e+00
  -4.0000000e+00
  -8.4000000e+01
  -1.2600000e+02
  -9.7000000e+01
  -1.0400000e+02
  -1.5100000e+02
  -1.6900000e+02
  -1.4200000e+02
  -9.1000000e+01
  -1.0200000e+02
  -8.6000000e+01
  -3.3000000e+01
   3.0000000e+00
   2.0000000e+00
  -1.4000000e+01
   3.4000000e+01
   3.9000000e+01
  -2.2000000e+01
  -7.8000000e+01
  -7.1000000e+01
  -8.4000000e+01
  -1.7100000e+02
  -2.3000000e+02
  -2.1600000e+02
  -2.0400000e+02
  -2.6000000e+02
  -2.7200000e+02
  -2.5400000e+02
  -2.2400000e+02
  -2.3600000e+02
  -2.3900000e+02
  -1.9700000e+02
  -1.7500000e+02
  -1.9400000e+02
  -2.0500000e+02
  -1.7100000e+02
  -1.3900000e+02
  -1.5600000e+02
  -2.0800000e+02
  -2.0600000e+02
  -1.9400000e+02
  -2.0300000e+02
  -1.9700000e+02
  -1.5500000e+02
  -1.2600000e+02
  -1.5600000e+02
  -1.6300000e+02
  -1.2800000e+02
  -7.3000000e+01
  -6.5000000e+01
  -8.2000000e+01
  -2.6000000e+01
   2.6000000e+01
   3.3000000e+01
   4.3000000e+01
   8.5000000e+01
   1.1000000e+02
   9.1000000e+01
   4.1000000e+01
   3.5000000e+01
   3.9000000e+01
  -1.7000000e+01
  -5.6000000e+01
  -4.6000000e+01
  -3.5000000e+01
  -6.2000000e+01
  -3.9000000e+01
   0.0000000e+00
   2.7000000e+01
   2.0000000e+01
   2.0000000e+01
   7.5000000e+01
   1.0000000e+02
   8.3000000e+01
   9.1000000e+01
   1.3300000e+02
   1.2400000e+02
   8.7000000e+01
   3.5000000e+01
   4.4000000e+01
   6.5000000e+01
   1.0000000e+01
   1.0000000e+00
   3.6000000e+01
   7.5000000e+01
   9.3000000e+01
   1.5800000e+02
   2.9300000e+02
   4.6800000e+02
   5.9100000e+02
   7.2700000e+02
   9.5900000e+02
   1.1850000e+03
   1.3710000e+03
   1.5640000e+03
   1.8010000e+03
   2.0090000e+03
   2.1820000e+03
   2.3130000e+03
   2.4850000e+03
   2.6620000e+03
   2.7600000e+03
   2.8510000e+03
   2.9660000e+03
   3.0710000e+03
   3.1380000e+03
   3.2330000e+03
   3.3160000e+03
   3.3800000e+03
   3.3550000e+03
   3.2600000e+03
   3.1490000e+03
   2.9610000e+03
   2.7220000e+03
   2.5250000e+03
   2.3680000e+03
   2.1090000e+03
   1.7930000e+03
   1.4680000e+03
   1.2230000e+03
   1.0310000e+03
   8.2200000e+02
   6.3100000e+02
   5.1200000e+02
   4.0700000e+02
   2.5900000e+02
   1.5800000e+02
   9.7000000e+01
   5.9000000e+01
  -1.5000000e+01
  -7.1000000e+01
  -6.1000000e+01
  -4.1000000e+01
  -4.7000000e+01
  -2.9000000e+01
   7.3000000e+01
   1.1000000e+02
   1.2400000e+02
   1.0700000e+02
   1.1100000e+02
   1.5000000e+02
   8.2000000e+01
   3.8000000e+01
   3.2000000e+01
   1.3000000e+01
  -6.6000000e+01
  -1.0500000e+02
  -8.0000000e+01
  -9.2000000e+01
  -1.0400000e+02
  -1.3900000e+02
  -1.0100000e+02
  -4.7000000e+01
  -3.9000000e+01
  -7.5000000e+01
  -3.5000000e+01
  -2.6000000e+01
  -6.9000000e+01
  -1.1700000e+02
  -9.8000000e+01
  -8.0000000e+01
  -1.5800000e+02
  -1.7200000e+02
  -1.7600000e+02
  -1.8500000e+02
  -2.4400000e+02
  -2.7000000e+02
  -2.4200000e+02
  -1.8300000e+02
  -1.7200000e+02
  -1.8700000e+02
  -1.3200000e+02
  -7.7000000e+01
  -5.8000000e+01
  -4.6000000e+01
  -5.0000000e+00
  -1.2000000e+01
  -5.9000000e+01
  -1.0000000e+02
  -8.8000000e+01
  -7.8000000e+01
  -1.1600000e+02
  -1.7600000e+02
  -1.6000000e+02
  -1.3200000e+02
  -1.7300000e+02
  -1.9100000e+02
  -1.6200000e+02
  -1.2600000e+02
  -1.0200000e+02
  -9.1000000e+01
   7.0000000e+00
   5.8000000e+01
   5.9000000e+01
   4.2000000e+01
   5.8000000e+01
   7.2000000e+01
   3.7000000e+01
   1.8000000e+01
   3.7000000e+01
   8.2000000e+01
   3.4000000e+01
  -4.0000000e+00
   1.5000000e+01
   2.5000000e+01
   0.0000000e+00
   1.2000000e+01
   6.8000000e+01
   1.2300000e+02
   1.4600000e+02
   1.5600000e+02
   1.9900000e+02
   2.1600000e+02
   1.9800000e+02
   2.0500000e+02
   2.8600000e+02
   3.0600000e+02
   2.6500000e+02
   2.1500000e+02
   1.9900000e+02
   2.1800000e+02
   1.9000000e+02
   1.5500000e+02
   1.6000000e+02
   1.6500000e+02
   1.2900000e+02
   1.2400000e+02
   1.6700000e+02
   2.2400000e+02
   2.3600000e+02
   2.3400000e+02
   2.9600000e+02
   3.2000000e+02
   3.0500000e+02
   3.0900000e+02
   3.3200000e+02
   3.4100000e+02
   2.8300000e+02
   2.4400000e+02
   2.2900000e+02
   2.3800000e+02
   2.0600000e+02
   1.7700000e+02
   1.6400000e+02
   1.5100000e+02
   1.0400000e+02
   8.5000000e+01
   1.1700000e+02
   1.7400000e+02
   1.6600000e+02
   1.3800000e+02
   1.9500000e+02
   2.3700000e+02
   2.3200000e+02
   2.3500000e+02
   2.7100000e+02
   2.9200000e+02
   2.6600000e+02
   2.5200000e+02
   2.7200000e+02
   2.8100000e+02
   2.2200000e+02
   1.7900000e+02
   2.0700000e+02
   2.2800000e+02
   1.8500000e+02
   1.9600000e+02
   2.6000000e+02
   3.3900000e+02
   3.4900000e+02
   3.4200000e+02
   3.9800000e+02
   4.7300000e+02
   4.9900000e+02
   5.0000000e+02
   5.1400000e+02
   5.1000000e+02
   4.4200000e+02
   3.6900000e+02
   3.2900000e+02
   3.2900000e+02
   2.8300000e+02
   2.5300000e+02
   2.7300000e+02
   2.9100000e+02
   2.8300000e+02
   3.5000000e+02
   4.5100000e+02
   5.2400000e+02
   5.4900000e+02
   5.3300000e+02
   5.7100000e+02
   5.9900000e+02
   5.7300000e+02
   5.5000000e+02
   5.8000000e+02
   6.0000000e+02
   5.8400000e+02
   5.6700000e+02
   5.9500000e+02
   6.3200000e+02
   5.8600000e+02
   5.3600000e+02
   5.3000000e+02
   5.2900000e+02
   4.8000000e+02
   4.5100000e+02
   4.7700000e+02
   5.0400000e+02
   4.7600000e+02
   4.6100000e+02
   5.2700000e+02
   5.8300000e+02
   5.9900000e+02
   5.9900000e+02
   6.3500000e+02
   6.7000000e+02
   6.9400000e+02
   6.7500000e+02
   6.7300000e+02
   7.1100000e+02
   6.7000000e+02
   6.3300000e+02
   6.3200000e+02
   6.3300000e+02
   5.8200000e+02
   5.5700000e+02
   5.8200000e+02
   6.2700000e+02
   6.5100000e+02
   6.4700000e+02
   7.1200000e+02
   7.5200000e+02
   7.4500000e+02
   7.3200000e+02
   7.6600000e+02
   7.9200000e+02
   7.3600000e+02
   6.7300000e+02
   6.4800000e+02
   6.7300000e+02
   6.1900000e+02
   5.8300000e+02
   6.0300000e+02
   5.9400000e+02
   5.3700000e+02
   4.9800000e+02
   5.0900000e+02
   5.4700000e+02
   5.4300000e+02
   5.3300000e+02
   5.7600000e+02
   6.2500000e+02
   6.1700000e+02
   5.7000000e+02
   5.6400000e+02
   5.4500000e+02
   4.7600000e+02
   3.9800000e+02
   3.5300000e+02
   3.3200000e+02
   2.6000000e+02
   2.0000000e+02
   1.8200000e+02
   1.4700000e+02
   8.8000000e+01
   8.3000000e+01
   8.6000000e+01
   1.1100000e+02
   8.9000000e+01
   6.5000000e+01
   9.9000000e+01
   1.2500000e+02
   9.0000000e+01
   5.8000000e+01
   9.4000000e+01
   1.0700000e+02
   1.1300000e+02
   8.4000000e+01
   6.0000000e+01
   4.1000000e+01
  -1.9000000e+01
  -5.8000000e+01
  -6.8000000e+01
  -7.2000000e+01
  -1.2100000e+02
  -1.1800000e+02
  -9.8000000e+01
  -5.4000000e+01
  -7.3000000e+01
  -9.8000000e+01
  -3.8000000e+01
  -1.0000000e+00
  -1.5000000e+01
  -4.0000000e+01
   7.0000000e+00
  -2.0000000e+00
  -7.0000000e+01
  -1.2100000e+02
  -1.5500000e+02
  -1.5300000e+02
  -2.0400000e+02
  -2.3100000e+02
  -2.2700000e+02
  -2.3100000e+02
  -2.7900000e+02
  -2.8900000e+02
  -2.4700000e+02
  -2.1300000e+02
  -2.0600000e+02
  -2.3600000e+02
  -2.0000000e+02
  -1.7000000e+02
  -1.7900000e+02
  -1.9600000e+02
  -1.5500000e+02
  -1.4300000e+02
  -1.6500000e+02
  -2.2000000e+02
  -2.4700000e+02
  -2.4700000e+02
  -3.1100000e+02
  -3.4600000e+02
  -3.2100000e+02
  -3.0400000e+02
  -3.3400000e+02
  -3.4000000e+02
  -3.1400000e+02
  -2.6900000e+02
  -2.5600000e+02
  -2.7200000e+02
  -2.0900000e+02
  -1.6000000e+02
  -1.9600000e+02
  -1.8400000e+02
  -1.2700000e+02
  -9.6000000e+01
  -1.1300000e+02
  -1.3600000e+02
  -1.5500000e+02
  -1.3900000e+02
  -1.6000000e+02
  -2.1700000e+02
  -2.2400000e+02
  -1.9700000e+02
  -2.0500000e+02
  -2.0100000e+02
  -1.4900000e+02
  -6.2000000e+01
  -2.3000000e+01
  -3.8000000e+01
   2.0000000e+01
   6.0000000e+01
   5.1000000e+01
   4.3000000e+01
   8.5000000e+01
   8.7000000e+01
   5.5000000e+01
   9.0000000e+00
   1.0000000e+00
   2.2000000e+01
  -2.3000000e+01
  -6.7000000e+01
  -4.5000000e+01
  -2.9000000e+01
  -9.9000000e+01
  -1.1600000e+02
  -9.0000000e+01
  -4.9000000e+01
  -1.9000000e+01
  -4.0000000e+01
  -5.0000000e+00
   1.4000000e+01
  -4.0000000e+00
  -9.0000000e+00
   1.3000000e+01
   5.0000000e+00
  -5.2000000e+01
  -1.1200000e+02
  -1.5400000e+02
  -1.5600000e+02
  -2.0500000e+02
  -2.2600000e+02
  -2.5100000e+02
  -2.6400000e+02
  -2.9900000e+02
  -3.2900000e+02
  -3.0400000e+02
  -2.5600000e+02
  -2.5900000e+02
  -2.7100000e+02
  -2.2300000e+02
  -1.8700000e+02
  -1.9600000e+02
  -2.1200000e+02
  -1.7100000e+02
  -1.7400000e+02
  -2.4600000e+02
  -2.9600000e+02
  -3.1200000e+02
  -2.7200000e+02
  -2.9000000e+02
  -3.2500000e+02
  -3.1600000e+02
  -3.2000000e+02
  -3.8300000e+02
  -3.9200000e+02
  -3.6400000e+02
  -3.3000000e+02
  -3.0600000e+02
  -2.8600000e+02
  -2.4100000e+02
  -1.8700000e+02
  -1.8700000e+02
  -1.9100000e+02
  -1.5400000e+02
  -1.2600000e+02
  -1.6500000e+02
  -2.2000000e+02
  -2.6800000e+02
  -2.5700000e+02
  -2.9400000e+02
  -3.2800000e+02
  -3.0200000e+02
  -2.9200000e+02
  -3.2100000e+02
  -3.4700000e+02
  -3.2000000e+02
  -2.9300000e+02
  -2.9300000e+02
  -3.0400000e+02
  -2.5700000e+02
  -2.0500000e+02
  -2.2800000e+02
  -2.4800000e+02
  -1.9900000e+02
  -1.7600000e+02
  -1.9600000e+02
  -2.3700000e+02
  -2.4500000e+02
  -2.2400000e+02
  -2.9400000e+02
  -3.3200000e+02
  -3.1200000e+02
  -3.0600000e+02
  -3.3800000e+02
  -3.4700000e+02
  -3.1800000e+02
  -2.8200000e+02
  -2.7400000e+02
  -3.0200000e+02
  -2.3500000e+02
  -1.9300000e+02
  -1.8500000e+02
  -1.5900000e+02
  -1.1900000e+02
  -1.0000000e+02
  -1.4200000e+02
  -1.8100000e+02
  -1.9200000e+02
  -1.9100000e+02
  -2.4100000e+02
  -2.7100000e+02
  -2.6400000e+02
  -2.6300000e+02
  -2.9400000e+02
  -2.7600000e+02
  -2.2100000e+02
  -1.6000000e+02
  -1.3100000e+02
  -1.4100000e+02
  -8.8000000e+01
  -6.1000000e+01
  -9.8000000e+01
  -1.1600000e+02
  -7.9000000e+01
  -3.4000000e+01
  -3.1000000e+01
  -5.3000000e+01
  -4.1000000e+01
  -2.7000000e+01
  -8.8000000e+01
  -1.2900000e+02
  -1.1800000e+02
  -9.0000000e+01
  -1.2600000e+02
  -1.2700000e+02
  -8.6000000e+01
  -4.5000000e+01
  -2.2000000e+01
  -3.0000000e+01
   1.1000000e+01
   5.8000000e+01
   7.3000000e+01
   6.3000000e+01
   1.0100000e+02
   1.2000000e+02
   7.8000000e+01
   2.0000000e+01
   1.4000000e+01
   3.6000000e+01
  -7.0000000e+00
  -6.6000000e+01
  -9.8000000e+01
  -1.0300000e+02
  -1.6000000e+02
  -1.8500000e+02
  -1.6300000e+02
  -1.0000000e+02
  -8.1000000e+01
  -1.1000000e+02
  -7.6000000e+01
  -3.6000000e+01
  -4.7000000e+01
  -4.6000000e+01
   6.0000000e+00
   2.8000000e+01
   1.0000000e+00
  -5.1000000e+01
  -6.4000000e+01
  -5.0000000e+01
  -1.2200000e+02
  -1.8100000e+02
  -1.5800000e+02
  -1.5100000e+02
  -1.8800000e+02
  -1.6600000e+02
  -1.1200000e+02
  -7.3000000e+01
  -8.2000000e+01
  -1.0700000e+02
  -7.0000000e+01
  -2.8000000e+01
  -4.2000000e+01
  -4.1000000e+01
   2.0000000e+00
   3.4000000e+01
  -1.0000000e+00
  -5.2000000e+01
  -1.0400000e+02
  -1.2700000e+02
  -1.9900000e+02
  -2.6100000e+02
  -2.8000000e+02
  -2.6700000e+02
  -3.1500000e+02
  -3.5300000e+02
  -3.3400000e+02
  -2.6900000e+02
  -2.0100000e+02
  -1.8600000e+02
  -1.3400000e+02
  -1.1700000e+02
  -1.2500000e+02
  -1.8300000e+02
  -1.4800000e+02
  -1.7600000e+02
  -2.1300000e+02
  -3.0600000e+02
  -3.3800000e+02
  -3.2900000e+02
  -3.6400000e+02
  -4.0600000e+02
  -3.8700000e+02
  -3.9600000e+02
  -4.2600000e+02
  -4.5300000e+02
  -4.5100000e+02
  -4.1300000e+02
  -4.1400000e+02
  -4.2100000e+02
  -3.7300000e+02
  -3.4300000e+02
  -3.5900000e+02
  -4.0900000e+02
  -3.8300000e+02
  -3.5000000e+02
  -3.8500000e+02
  -4.1000000e+02
  -4.1300000e+02
  -3.7500000e+02
  -4.2200000e+02
  -4.8900000e+02
  -4.7600000e+02
  -4.7200000e+02
  -4.9300000e+02
  -5.2000000e+02
  -4.9700000e+02
  -4.6900000e+02
  -4.7400000e+02
  -4.7300000e+02
  -4.4600000e+02
  -4.0600000e+02
  -4.2000000e+02
  -4.3000000e+02
  -3.7400000e+02
  -3.6400000e+02
  -3.7700000e+02
  -4.3500000e+02
  -4.5200000e+02
  -4.0800000e+02
  -4.6400000e+02
  -4.9000000e+02
  -4.9400000e+02
  -4.5000000e+02
  -4.8700000e+02
  -4.9500000e+02
  -4.6200000e+02
  -4.2300000e+02
  -3.9700000e+02
  -3.9100000e+02
  -3.5600000e+02
  -3.2000000e+02
  -3.5700000e+02
  -3.4000000e+02
  -3.2300000e+02
  -2.8700000e+02
  -3.2900000e+02
  -3.7200000e+02
  -3.7300000e+02
  -3.4800000e+02
  -3.6100000e+02
  -4.2700000e+02
  -4.2800000e+02
  -4.2500000e+02
  -4.4300000e+02
  -4.4200000e+02
  -4.0100000e+02
  -3.5700000e+02
  -3.1700000e+02
  -3.3000000e+02
  -3.0600000e+02
  -2.4200000e+02
  -2.3800000e+02
  -2.5000000e+02
  -2.1800000e+02
  -2.2300000e+02
  -2.4200000e+02
  -2.9400000e+02
  -2.7500000e+02
  -1.9300000e+02
  -1.7900000e+02
  -1.1200000e+02
   3.3000000e+01
   1.7400000e+02
   3.0300000e+02
   4.5000000e+02
   6.4300000e+02
   8.8500000e+02
   1.1090000e+03
   1.2820000e+03
   1.5150000e+03
   1.7330000e+03
   1.9300000e+03
   2.1100000e+03
   2.2880000e+03
   2.4530000e+03
   2.5490000e+03
   2.6350000e+03
   2.7220000e+03
   2.8410000e+03
   2.8930000e+03
   2.8870000e+03
   2.8710000e+03
   2.8230000e+03
   2.6680000e+03
   2.4510000e+03
   2.2490000e+03
   2.0530000e+03
   1.8450000e+03
   1.6060000e+03
   1.3670000e+03
   1.1550000e+03
   9.1000000e+02
   6.7200000e+02
   5.2400000e+02
   4.0700000e+02
   2.6400000e+02
   9.6000000e+01
  -6.1000000e+01
  -1.6900000e+02
  -3.4700000e+02
  -4.8900000e+02
  -5.6700000e+02
  -5.9500000e+02
  -6.7400000e+02
  -7.0600000e+02
  -6.6300000e+02
  -6.1400000e+02
  -5.7600000e+02
  -5.5900000e+02
  -4.5000000e+02
  -3.7800000e+02
  -3.4500000e+02
  -3.4200000e+02
  -3.0500000e+02
  -2.7600000e+02
  -3.1300000e+02
  -4.2300000e+02
  -4.8500000e+02
  -5.0500000e+02
  -5.8300000e+02
  -6.5800000e+02
  -6.5800000e+02
  -6.5300000e+02
  -7.2300000e+02
  -7.6000000e+02
  -7.3400000e+02
  -6.9100000e+02
  -6.6600000e+02
  -6.5300000e+02
  -6.1200000e+02
  -5.6800000e+02
  -5.5600000e+02
  -5.7400000e+02
  -5.4100000e+02
  -5.1900000e+02
  -5.5900000e+02
  -6.3700000e+02
  -6.3600000e+02
  -6.4500000e+02
  -6.9500000e+02
  -7.3800000e+02
  -7.2800000e+02
  -7.1300000e+02
  -7.3500000e+02
  -7.6700000e+02
  -7.7600000e+02
  -7.1700000e+02
  -6.9400000e+02
  -6.9100000e+02
  -6.4100000e+02
  -6.0100000e+02
  -6.0300000e+02
  -6.4000000e+02
  -6.0100000e+02
  -5.7700000e+02
  -6.0800000e+02
  -6.4300000e+02
  -6.7300000e+02
  -6.6200000e+02
  -7.0800000e+02
  -7.8900000e+02
  -7.8600000e+02
  -7.8400000e+02
  -8.1400000e+02
  -8.0300000e+02
  -7.5300000e+02
  -7.0000000e+02
  -6.7300000e+02
  -6.9600000e+02
  -6.5000000e+02
  -6.3400000e+02
  -6.1900000e+02
  -6.4200000e+02
  -6.2300000e+02
  -5.8100000e+02
  -5.8100000e+02
  -6.2700000e+02
  -6.4700000e+02
  -6.5500000e+02
  -6.9700000e+02
  -7.2700000e+02
  -7.3000000e+02
  -7.2700000e+02
  -7.5400000e+02
  -7.9000000e+02
  -7.3500000e+02
  -6.5000000e+02
  -6.0000000e+02
  -6.0500000e+02
  -5.6300000e+02
  -5.1600000e+02
  -5.2000000e+02
  -5.2400000e+02
  -5.1600000e+02
  -4.8700000e+02
  -5.0500000e+02
  -5.3200000e+02
  -5.2100000e+02
  -4.9100000e+02
  -5.4400000e+02
  -6.2100000e+02
  -6.2300000e+02
  -6.0900000e+02
  -6.2100000e+02
  -6.2000000e+02
  -5.8300000e+02
  -5.3600000e+02
  -5.2100000e+02
  -5.1400000e+02
  -4.4000000e+02
  -3.7400000e+02
  -3.6100000e+02
  -3.7100000e+02
  -3.0900000e+02
  -2.7500000e+02
  -2.8200000e+02
  -3.4300000e+02
  -3.4200000e+02
  -3.0900000e+02
  -3.6400000e+02
  -3.8400000e+02
  -3.9100000e+02
  -3.8700000e+02
  -4.4200000e+02
  -4.7800000e+02
  -4.6600000e+02
  -4.3300000e+02
  -4.3400000e+02
  -4.3200000e+02
  -3.7600000e+02
  -3.3700000e+02
  -3.5800000e+02
  -3.7000000e+02
  -3.6300000e+02
  -3.6400000e+02
  -4.1900000e+02
  -4.6800000e+02
  -4.8100000e+02
  -4.7500000e+02
  -5.3200000e+02
  -5.8200000e+02
  -5.6900000e+02
  -5.4000000e+02
  -5.5300000e+02
  -5.6300000e+02
  -5.3300000e+02
  -4.9200000e+02
  -4.6100000e+02
  -4.6800000e+02
  -3.9400000e+02
  -3.3600000e+02
  -3.4300000e+02
  -3.6100000e+02
  -3.2700000e+02
  -2.8400000e+02
  -2.8000000e+02
  -3.1300000e+02
  -3.2100000e+02
  -2.8100000e+02
  -2.8700000e+02
  -3.0700000e+02
  -3.0500000e+02
  -2.8200000e+02
  -3.1400000e+02
  -3.2500000e+02
  -2.9500000e+02
  -2.2600000e+02
  -1.7700000e+02
  -1.6300000e+02
  -1.1300000e+02
  -5.9000000e+01
  -5.9000000e+01
  -6.7000000e+01
  -3.8000000e+01
  -7.0000000e+00
  -3.1000000e+01
  -6.6000000e+01
  -7.0000000e+01
  -4.5000000e+01
  -4.9000000e+01
  -9.1000000e+01
  -8.2000000e+01
  -7.0000000e+01
  -1.0300000e+02
  -1.1200000e+02
  -7.5000000e+01
  -1.7000000e+01
   1.0000000e+01
   0.0000000e+00
   6.1000000e+01
   1.1700000e+02
   1.3200000e+02
   1.2000000e+02
   1.7500000e+02
   2.1300000e+02
   1.9000000e+02
   1.3900000e+02
   1.1700000e+02
   1.5000000e+02
   1.3000000e+02
   1.0300000e+02
   1.1600000e+02
   1.6300000e+02
   1.3600000e+02
   1.1400000e+02
   1.5800000e+02
   2.2600000e+02
   2.5400000e+02
   2.4000000e+02
   2.9000000e+02
   3.3500000e+02
   3.4000000e+02
   3.1700000e+02
   3.3800000e+02
   3.6100000e+02
   3.3000000e+02
   2.7100000e+02
   2.6300000e+02
   3.0500000e+02
   2.7800000e+02
   2.3600000e+02
   2.2000000e+02
   2.1600000e+02
   1.2900000e+02
   2.0000000e+01
  -1.3000000e+01
   9.0000000e+00
   3.8000000e+01
   1.8000000e+01
   5.9000000e+01
   1.0500000e+02
   1.3200000e+02
   1.5900000e+02
   2.0100000e+02
   2.0500000e+02
   1.6800000e+02
   1.1700000e+02
   7.2000000e+01
   6.0000000e+01
  -4.0000000e+00
  -7.8000000e+01
  -1.0300000e+02
  -7.9000000e+01
  -1.0800000e+02
  -1.4400000e+02
  -1.1400000e+02
  -7.6000000e+01
  -4.8000000e+01
  -7.3000000e+01
  -3.6000000e+01
  -1.0000000e+01
  -3.1000000e+01
  -8.6000000e+01
  -8.0000000e+01
  -1.0000000e+02
  -1.5200000e+02
  -2.0100000e+02
  -2.1600000e+02
  -2.0600000e+02
  -2.4800000e+02
  -2.8700000e+02
  -2.8200000e+02
  -2.6400000e+02
  -2.9900000e+02
  -3.0300000e+02
  -2.7300000e+02
  -2.2500000e+02
  -2.0400000e+02
  -2.3400000e+02
  -2.0400000e+02
  -1.8600000e+02
  -2.1000000e+02
  -2.7000000e+02
  -2.6300000e+02
  -2.3800000e+02
  -2.7200000e+02
  -3.4800000e+02
  -3.8100000e+02
  -3.8500000e+02
  -4.4600000e+02
  -4.9200000e+02
  -4.9200000e+02
  -4.8200000e+02
  -5.2300000e+02
  -5.5500000e+02
  -5.5300000e+02
  -4.9700000e+02
  -4.5100000e+02
  -4.6500000e+02
  -4.2700000e+02
  -3.9600000e+02
  -4.0700000e+02
  -4.1800000e+02
  -3.7400000e+02
  -3.3700000e+02
  -3.4900000e+02
  -4.0800000e+02
  -4.4000000e+02
  -4.2600000e+02
  -4.5400000e+02
  -4.9400000e+02
  -4.8800000e+02
  -4.5200000e+02
  -4.8700000e+02
  -4.9700000e+02
  -4.6100000e+02
  -4.1000000e+02
  -3.7700000e+02
  -3.9400000e+02
  -3.6700000e+02
  -3.2400000e+02
  -3.4000000e+02
  -3.5100000e+02
  -3.2500000e+02
  -2.9700000e+02
  -3.1100000e+02
  -3.8500000e+02
  -4.0500000e+02
  -3.9800000e+02
  -4.4400000e+02
  -5.0200000e+02
  -5.1100000e+02
  -5.1300000e+02
  -5.6000000e+02
  -5.8100000e+02
  -5.5700000e+02
  -4.8600000e+02
  -4.4300000e+02
  -4.5700000e+02
  -4.2600000e+02
  -3.9400000e+02
  -3.8700000e+02
  -3.7300000e+02
  -3.3800000e+02
  -2.9900000e+02
  -3.2900000e+02
  -4.1500000e+02
  -4.2700000e+02
  -3.9800000e+02
  -4.1600000e+02
  -4.9300000e+02
  -5.0200000e+02
  -4.8600000e+02
  -5.1900000e+02
  -5.3400000e+02
  -4.9200000e+02
  -4.2500000e+02
  -3.8400000e+02
  -3.9400000e+02
  -3.6300000e+02
  -3.3100000e+02
  -3.3300000e+02
  -3.4000000e+02
  -3.0500000e+02
  -2.9000000e+02
  -3.0800000e+02
  -3.4200000e+02
  -3.3800000e+02
  -3.2200000e+02
  -3.3000000e+02
  -3.7200000e+02
  -3.7500000e+02
  -3.5900000e+02
  -3.7900000e+02
  -3.6700000e+02
  -3.3100000e+02
  -2.9700000e+02
  -2.8600000e+02
  -3.0300000e+02
  -2.4300000e+02
  -1.5000000e+02
  -1.6300000e+02
  -1.8300000e+02
  -1.3600000e+02
  -1.0900000e+02
  -1.1500000e+02
  -1.5500000e+02
  -1.6100000e+02
  -1.3900000e+02
  -1.7300000e+02
  -2.1600000e+02
  -2.2400000e+02
  -1.8400000e+02
  -2.1300000e+02
  -2.2300000e+02
  -1.8600000e+02
  -1.2600000e+02
  -8.7000000e+01
  -8.7000000e+01
  -5.2000000e+01
   0.0000000e+00
   1.6000000e+01
   1.2000000e+01
   3.6000000e+01
   5.8000000e+01
   4.0000000e+01
   8.0000000e+00
  -3.0000000e+00
   1.8000000e+01
  -6.0000000e+00
  -3.3000000e+01
  -2.9000000e+01
   4.0000000e+00
  -3.2000000e+01
  -6.8000000e+01
  -6.1000000e+01
   4.0000000e+00
   2.5000000e+01
   0.0000000e+00
   3.5000000e+01
   8.5000000e+01
   1.1300000e+02
   1.1300000e+02
   1.6800000e+02
   2.0200000e+02
   1.9600000e+02
   1.4300000e+02
   1.0100000e+02
   1.2000000e+02
   9.3000000e+01
   5.0000000e+01
   4.7000000e+01
   5.7000000e+01
   3.8000000e+01
   2.4000000e+01
   4.0000000e+01
   1.0900000e+02
   1.2600000e+02
   9.8000000e+01
   1.4700000e+02
   2.0300000e+02
   2.0900000e+02
   2.0600000e+02
   2.2500000e+02
   2.5500000e+02
   2.2000000e+02
   1.5600000e+02
   1.4000000e+02
   1.6800000e+02
   1.3700000e+02
   9.9000000e+01
   1.0100000e+02
   1.2000000e+02
   1.1700000e+02
   8.4000000e+01
   1.1200000e+02
   1.6900000e+02
   1.9600000e+02
   1.8900000e+02
   2.1500000e+02
   2.4900000e+02
   2.3800000e+02
   2.2500000e+02
   2.5900000e+02
   3.0100000e+02
   2.8700000e+02
   2.2500000e+02
   1.7300000e+02
   2.0200000e+02
   1.6900000e+02
   1.1300000e+02
   1.2700000e+02
   1.3000000e+02
   1.1500000e+02
   9.0000000e+01
   1.0300000e+02
   1.5000000e+02
   1.8500000e+02
   1.6900000e+02
   2.2100000e+02
   2.5400000e+02
   2.7300000e+02
   2.5400000e+02
   3.1500000e+02
   3.4200000e+02
   3.1800000e+02
   2.7600000e+02
   2.4800000e+02
   2.7900000e+02
   2.5500000e+02
   2.0500000e+02
   1.9600000e+02
   2.2200000e+02
   1.9300000e+02
   1.5700000e+02
   1.7500000e+02
   2.4300000e+02
   2.6900000e+02
   2.4700000e+02
   2.7500000e+02
   3.1900000e+02
   3.1900000e+02
   3.0200000e+02
   3.4400000e+02
   3.5700000e+02
   3.2600000e+02
   2.7600000e+02
   2.5300000e+02
   2.6200000e+02
   2.3900000e+02
   1.8700000e+02
   1.7400000e+02
   1.7900000e+02
   1.7400000e+02
   1.4000000e+02
   1.3500000e+02
   1.7100000e+02
   1.8200000e+02
   1.6900000e+02
   2.2900000e+02
   2.9700000e+02
   2.8100000e+02
   2.4100000e+02
   2.7800000e+02
   2.7800000e+02
   2.4500000e+02
   1.9300000e+02
   1.5700000e+02
   1.7200000e+02
   1.0400000e+02
   3.4000000e+01
   1.2000000e+01
   3.7000000e+01
   2.1000000e+01
   1.0000000e+00
  -6.0000000e+00
   2.0000000e+01
   5.0000000e+01
   3.2000000e+01
   5.5000000e+01
   1.0400000e+02
   1.0000000e+02
   7.8000000e+01
   1.0500000e+02
   1.4900000e+02
   1.1900000e+02
   5.4000000e+01
   2.6000000e+01
   6.2000000e+01
   6.7000000e+01
   1.8000000e+01
   2.0000000e+01
   4.5000000e+01
   2.6000000e+01
  -1.4000000e+01
   1.7000000e+01
   8.0000000e+01
   1.0900000e+02
   9.5000000e+01
   1.0900000e+02
   1.7300000e+02
   1.9500000e+02
   1.8900000e+02
   2.2400000e+02
   2.2700000e+02
   2.1100000e+02
   1.6300000e+02
   1.2700000e+02
   1.4900000e+02
   9.3000000e+01
   4.6000000e+01
   5.8000000e+01
   6.9000000e+01
   4.2000000e+01
   3.0000000e+00
   1.9000000e+01
   7.0000000e+01
   1.2600000e+02
   9.8000000e+01
   1.3500000e+02
   1.9700000e+02
   1.8500000e+02
   1.3600000e+02
   1.3300000e+02
   1.5300000e+02
   1.1800000e+02
   8.7000000e+01
   7.9000000e+01
   1.0500000e+02
   1.0300000e+02
   9.0000000e+01
   1.0000000e+02
   1.2600000e+02
   1.2100000e+02
   9.3000000e+01
   9.3000000e+01
   7.9000000e+01
   4.9000000e+01
   4.0000000e+00
   2.1000000e+01
   9.8000000e+01
   1.4600000e+02
   1.6000000e+02
   2.0300000e+02
   2.5800000e+02
   2.9300000e+02
   2.9500000e+02
   3.0100000e+02
   3.7300000e+02
   4.1500000e+02
   4.4800000e+02
   5.4100000e+02
   6.7500000e+02
   7.6800000e+02
   9.0100000e+02
   1.0990000e+03
   1.3510000e+03
   1.5980000e+03
   1.7830000e+03
   2.0060000e+03
   2.2710000e+03
   2.4520000e+03
   2.5890000e+03
   2.7480000e+03
   2.9180000e+03
   3.0390000e+03
   3.0650000e+03
   3.1130000e+03
   3.2210000e+03
   3.2710000e+03
   3.2890000e+03
   3.3180000e+03
   3.3100000e+03
   3.2040000e+03
   3.0330000e+03
   2.8410000e+03
   2.6740000e+03
   2.4800000e+03
   2.2440000e+03
   2.0600000e+03
   1.8430000e+03
   1.5780000e+03
   1.3270000e+03
   1.1680000e+03
   1.0090000e+03
   8.1600000e+02
   6.3600000e+02
   4.7600000e+02
   3.7300000e+02
   2.2300000e+02
   6.9000000e+01
  -3.2000000e+01
  -9.6000000e+01
  -1.7200000e+02
  -2.3100000e+02
  -1.9600000e+02
  -1.4200000e+02
  -1.0300000e+02
  -1.0000000e+02
  -1.9000000e+01
   9.2000000e+01
   1.4300000e+02
   1.4100000e+02
   1.6100000e+02
   1.7000000e+02
   1.1900000e+02
   1.7000000e+01
  -5.4000000e+01
  -9.0000000e+01
  -1.5500000e+02
  -2.2100000e+02
  -2.5500000e+02
  -2.8000000e+02
  -3.1600000e+02
  -3.4200000e+02
  -3.2700000e+02
  -2.7100000e+02
  -2.2800000e+02
  -2.0300000e+02
  -1.6500000e+02
  -9.8000000e+01
  -7.2000000e+01
  -7.6000000e+01
  -4.1000000e+01
  -2.8000000e+01
  -6.4000000e+01
